81,174,401,149,39,53,48,24,64,24,24,40,0,0,44,24,60,20,24,16,32,20,44,32,48,32,48,28,48,28,0,7.2,0,0.4,1.5,17.2,0,5.5,0,0.1,1.7,17.6,-1.6,0.9,0,-0.3,0.4,-1.5,-6.4,0,0,-0.3,-1.6,-15.3,0,4.2,-0.9,0.4,0.7,8.3,0,2.2,0,-0.2,0.8,6.6,0,1,-8.8,0.5,-0.6,-21.6,0,2.6,-7.9,0.8,2,-16.4,0,5.8,-7.7,0.9,3.8,-5.7,0,9.5,-5,0.5,2.6,11.8,0,11,-2.4,0.4,2.6,21.6,0,8.5,0,0.2,2.1,20.4
138,163,386,185,102,75,40,24,56,40,116,52,64,88,36,24,128,24,24,100,40,96,48,32,44,28,44,28,44,24,0,4.5,-2.8,0.3,2.5,-2.2,-0.4,6.4,-1.3,0.7,2.7,14.2,-0.6,4.4,0,0.5,0.2,24.7,-5.3,1.8,0,-0.5,-2.5,-8,0,1.7,-2.7,-0.2,1,-9.4,0,4.9,0,0.6,1.4,31.3,0,0.7,-3.8,0.3,-3.3,18.7,0,2.2,-4.1,0.5,-2.4,20.9,0,5.8,-4.1,0.4,0.3,20.4,0,10,-5.7,0.5,2.2,-3,0,11.1,-3.4,0.4,3.4,11.5,0,9.5,-2.4,0.3,3.4,12.3
100,202,380,179,143,71,72,48,64,36,52,56,32,72,60,44,60,32,0,0,40,20,52,32,56,36,60,36,64,40,0,7.8,-0.7,1.1,1.9,27.3,0,9.1,-2.6,0.4,1.5,24.5,-0.4,1.6,-2.2,-1,-0.9,-1.5,-8.2,1.8,0,-0.7,-1.7,-23.4,0,3.2,-0.4,0.7,1.2,9.4,0,5.1,-2.5,0.3,0.6,9.8,-6.5,0,0,-0.4,-0.4,-18.2,0,1.2,-6.9,-0.5,2.9,-12.7,0,9,-7.9,0.1,4.1,7.6,0,15,-5.5,0.1,3.3,28.8,0,15.2,-3.7,0.6,3,36.8,0,12.2,-2.2,0.4,2.6,34.6
77,129,377,133,77,70,44,24,40,24,44,24,16,48,0,0,44,24,20,12,24,16,36,24,40,28,40,24,44,24,0,1.8,0,0.2,1,3.9,0,7.6,-1.1,0.5,1.4,13.5,0,5.9,-0.5,0.3,0.6,12.2,-4.6,0.6,0,-0.4,-0.9,-9.7,-2.1,0,0,-0.3,0.4,-3.7,0,6.8,-0.9,0.7,0.7,14.2,0,1.3,-11.5,-0.3,1.7,-30.9,0,2.3,-17.5,-0.6,4.5,-46.3,0,3.7,-11,-0.5,4.1,-19.8,0,7.7,-6.4,0.4,1.9,1.4,0,7.4,-2.5,0.4,1.3,9.3,0,6.5,0,0.4,1,14.3
78,0,376,157,70,67,44,24,52,28,56,24,32,56,0,0,52,28,20,8,24,16,36,24,44,28,48,28,48,24,0,4.1,-1.1,0.8,1,7.1,0,8.4,-1.5,0.6,0.7,19.4,0,4.4,-0.8,-0.3,-0.6,11.2,-6.3,1.3,0,-0.6,-0.8,-13.1,-0.8,0,0,0.6,0.7,-2,0,6.3,-1.2,0.2,0.3,14.7,0,0.5,-7.3,0.2,-0.1,-15.5,0,0.7,-8.9,0.6,2.5,-20.5,0,2.1,-9,0.6,3.8,-16.1,0,6.6,-4.1,0.3,1.4,4.7,0,8.5,-2.7,0.1,0.8,14.5,0,8.2,-1.9,0.1,0.5,15.8
84,118,354,160,63,64,40,20,44,28,36,20,12,44,0,0,36,20,20,12,24,12,28,16,44,32,44,28,40,24,0,2.3,0,0.4,1,4.6,0,5.4,-0.7,1.8,2.8,11.4,0,3,-0.4,1.4,1.8,5.3,-3.9,0.5,0,-1.1,-1.9,-7.5,0,0,0,-0.6,-0.5,0,0,4.2,-0.5,1.6,2.3,7.2,0,0.9,-5.5,-0.7,1,-14.5,0,1.2,-6.4,-0.5,2.6,-13.9,0,2.4,-10.3,0.3,6.8,-19.3,0,7.9,-7.3,0.9,6.5,5.7,0,9.3,-3.8,0.8,3.8,15.1,0,7,-1.3,0.6,2.1,12.5
89,130,383,156,73,63,44,28,56,32,72,28,28,60,28,16,60,32,24,68,36,20,40,24,56,40,52,32,44,44,0,3.5,-2,0.4,1.3,3.7,0,9.9,-0.8,1.2,1.2,26.8,0,8.3,0,0.8,0.3,29.8,-6.1,1.1,0,-0.6,-1.2,-15.5,0,0.6,-4.1,-0.1,0.8,-10.6,0,8.9,0,0.8,0.7,26.7,0,1.3,-5.4,0.2,0.8,-5.2,0,4.4,-8.5,0.8,3.9,-10.8,0,4.3,-7.3,1.1,4,-8.9,0,7,-3.2,1.1,1.3,13.2,0,10.9,-2.5,1,1,23.8,-0.6,10.8,-1.7,0.8,0.9,20.1
77,143,373,150,65,72,40,20,40,20,44,36,28,48,40,20,24,20,20,12,36,24,40,24,36,24,40,28,40,24,0,6.1,-1.7,0.8,1.6,9.9,0,4.5,-1.3,1.2,1.8,7.7,-2.6,1.1,0,0.5,0.2,-1.7,-5.3,1.6,0,-1.1,-1.8,-8.4,0,4.6,-0.9,0.3,0.7,8,-0.5,1.3,-0.7,0.8,1.2,0.7,0,0.6,-4.4,-0.4,-1.8,-9,0,3.3,-6.7,0.2,-0.9,-10.1,0,6.5,-9.1,0.5,0.4,-8.8,0,3.8,-5.6,0.5,0.3,-8.8,0,4.8,-4.3,0.6,0.9,-1.5,0,4.4,-2.2,0.5,1.5,4.9
78,155,382,163,81,73,72,24,44,28,0,0,36,48,84,28,0,0,24,72,36,24,44,28,48,32,44,32,44,28,0,6.3,0,0.8,0.7,22.6,0,3.7,-2.6,0.9,0.8,2.4,-3.5,0,0,0.4,0.1,-14,-5.2,0.6,0,-1.1,-0.6,-10.4,0,5.1,0,0.6,0.1,21.4,-2.9,0,0,0.7,0.4,-10.4,0,0.5,-5.4,-0.8,-0.4,-7.3,0,2.3,-3.7,0.1,0.6,-1.8,0,5.1,-5.8,0.5,1,-1.5,0,8.2,-5.8,0.8,1.1,4.6,0,7.1,-4.2,0.8,0.5,4.7,0,6.3,-2.1,0.8,0.5,8.8
91,180,355,157,104,56,92,32,48,52,40,52,0,0,40,28,44,52,44,28,48,32,52,36,60,36,52,52,48,48,0,3.2,0,0.4,1.1,14.7,-1.3,14.6,-0.4,0.8,1.7,32.8,-2.6,13.1,0,0.4,0.6,21.6,-8,0,0,-0.6,-1.4,-22.4,0,2.3,-5.7,-0.1,0.2,-5.6,-1.9,13.9,0,0.6,1.1,27.5,0,3.3,-7.4,0.2,-0.4,-9,0,8.9,-8,0.3,1.3,11.7,0,11.4,-3.7,0.5,4.8,23,0,20.6,-2.6,0.6,5.4,61.1,-1.1,19,-1.4,0.5,3.4,47.3,-0.9,12.3,0,0.4,2.1,28.5
77,158,399,163,94,72,80,28,72,44,64,52,0,0,36,20,80,32,28,20,36,20,52,32,48,24,44,36,64,40,0,10.2,0,0.6,2.3,40.8,-0.5,12.9,0,0.9,2,45.9,-0.6,4.2,0,0.7,-0.7,12.7,-11.5,0,0,-0.9,-2,-46,0,3.3,-0.9,0.7,1,4.3,0,8.4,0,0.5,1,33.6,0,3.4,-10.4,-0.8,-0.3,-20.2,0,5.6,-5.3,-0.5,3.4,0.5,0,8.3,-2.5,0.4,3.3,19,0,12.7,-1.1,0.3,1.9,29.8,-0.5,13.6,-0.4,0.2,1.9,29.3,-0.6,12.4,0,0.3,1.7,39.2
75,132,350,169,65,76,48,24,44,28,40,24,32,44,60,20,40,24,20,12,28,20,48,20,48,28,48,28,48,28,0,5.6,0,0.3,1.7,13.4,0,7.9,-1.8,1.2,2.3,14.8,0,2.6,-1.8,0.8,0.6,1.6,-6.7,1.2,0,-0.9,-1.8,-11.5,0,1.7,0,0.1,0.5,5.1,0,5.3,-1.9,0.8,1.4,7.2,0,1.4,-13.7,-0.9,0.5,-28.7,0,2.5,-11.9,-0.8,4.1,-22.6,0,5.9,-3.3,0.6,7,10.8,0,9.6,-2.9,0.7,3.1,19.6,0,9.6,-1.6,0.7,2.6,20.2,0,7.7,-0.8,0.6,1.7,17.2
82,145,347,169,61,67,48,20,52,28,52,28,32,56,32,60,52,28,16,72,20,76,24,12,56,40,52,32,48,28,0,2.2,0,0.4,0.7,5.2,0,9.8,-1.7,1.4,2.6,22.4,0,7.5,-1.2,1.2,2,17.4,-6,1.1,0,-0.9,-1.6,-13.9,-2.6,0.4,0,-0.4,-0.7,-5.6,0,8.6,-1.5,1.3,2.2,19.9,0,0.5,-8.7,-0.6,-0.4,-18.6,0,0.8,-9.7,-0.4,0.8,-19.4,0,1.4,-11.8,0.4,4.4,-29,0,7.6,-3.4,0.4,4.7,16.5,0,11.5,-2.6,0.4,2.8,25.3,0,9.4,-1.7,0.6,2.3,19.5
70,120,353,122,52,70,48,24,48,28,44,24,16,52,24,8,48,28,0,0,0,0,32,16,48,32,48,28,52,28,0,3.2,0,0.2,0.5,7.6,0,6,0,0.1,0.7,14.4,0,3,-0.4,-0.2,0.2,6.4,-4.6,0.4,0,-0.4,-0.6,-10.7,0,0.8,0,0.3,0.1,0.9,0,4.4,0,0.1,0.4,10.5,-10.4,0,0,0.2,0.5,-31.2,-6.7,0,0,0.3,0.6,-20.1,0,1.7,-4.1,0.5,1.3,-6.3,0,8.4,-2.9,0.4,0.9,14.3,0,8.4,-1.8,0.3,0.5,16.9,0,6.6,0,0.3,0.7,17.1
91,154,392,175,83,66,44,20,84,28,72,44,0,0,36,12,68,32,0,0,24,16,40,28,44,32,48,28,64,28,0,2.4,-0.8,0.7,1,3,0,3.8,0,0.9,0.2,15.9,-0.5,3.3,0,0.6,-1,11.4,-2.9,0,0,-0.7,-0.4,-11,0,0.9,-2,-0.2,0.8,-2.4,0,3.2,0,0.7,-0.4,10.8,-9.1,0,0,-0.2,2.8,-32.7,0,0.8,-13.3,-0.1,6.1,-41.6,0,5,-17.3,0.2,7.9,-34.9,0,11,-9.9,0.6,3,-1.5,0,8.3,-1.5,0.5,1.1,16,0,5.7,0,0.4,0.5,18.2
82,181,399,158,79,66,56,28,64,44,20,8,20,72,56,32,24,8,20,64,44,20,52,32,60,36,64,40,68,40,0,9.5,-0.6,0.9,1.7,26.2,0,3.4,-1.1,1.2,1.8,9.1,0,0.5,-6.6,0.4,-0.1,-23.2,-6.4,0.9,0,-1.1,-1.7,-20.8,0,7.9,0,-0.1,0.8,22.1,0,0.6,-2.3,0.8,0.8,-6.6,-4.2,1,0,-0.6,-0.7,-11.6,0,4.9,-2.5,-0.2,1.6,7.7,0,14.4,-2.7,0.1,4,33.7,0,18.8,-2,0.5,3.6,54.4,0,9.5,-1.4,0.5,2,28.8,0,7.7,-0.9,0.5,1.8,25.2
83,251,383,189,183,76,36,32,44,24,52,32,24,52,76,24,48,28,24,16,36,24,48,32,48,32,40,40,44,40,-0.4,4.8,-0.9,0.7,3,7.1,0,7.3,-1.7,1,3.7,13.7,0,2.6,-1.1,0.3,0.7,5.2,-6.3,1,0,-0.7,-2.9,-13.9,-0.4,1.2,0,0.2,1.1,4.3,0,5.3,-1.2,0.5,1.8,11.3,0,2.1,-6.5,0.2,-2,-19.6,0,4.9,-7.1,-0.3,2.6,-8.2,0,7,-6.8,-0.5,5.7,6,0,11.5,-4.3,0.4,4,21.6,-0.5,11.4,-2.8,0.4,4.2,18.5,-0.6,9.1,-1.4,0.6,3.3,17.1
90,122,336,177,78,66,36,20,52,28,60,40,24,56,0,0,56,32,32,20,40,24,40,24,44,32,40,24,40,40,0,3,-1.4,0.5,0.3,3.8,0,8,-1.3,1.5,1.5,18.5,0,6.4,-1.5,1.1,1.3,16.8,-5.2,1,0,-1.1,-1.1,-12.3,-3.4,0,0,-0.1,-0.4,-7.4,0,7.2,-1.2,1.1,1.4,18.5,0,2,-4.3,-0.5,0.7,-6.2,0,6.8,-9.7,0.4,3.5,-1.4,0,14.1,-22.7,1.1,7.1,-21.7,0,18.5,-17.6,1.2,2.9,-8.5,0,12.7,-5.3,1,1.4,10.6,-0.6,8.3,-1.8,0.8,1.1,11.7
71,132,364,169,82,77,44,24,72,24,56,32,0,0,28,16,72,32,32,20,40,24,44,28,48,32,48,28,48,24,0,5.2,-0.6,0.8,1,11.1,0,7.8,0,1.1,1.8,28,-0.4,5,0,0.3,0.8,13.7,-6.3,0,0,-1,-1.3,-22.6,0,2,-2.3,0.3,0.2,-0.8,0,6,0,0.7,1.2,21.6,0,1.6,-5,-0.6,0.7,-7.5,0,5.4,-7.1,-0.3,2.2,0.9,0,8.5,-7,0,3,8.9,0,8.9,-3.6,0.4,2.4,17,0,9.8,-2.3,0.5,2,19.4,0,8.9,-1,0.5,1.7,19.7
75,157,406,143,92,69,72,24,48,28,28,12,0,0,56,36,40,24,28,16,32,20,40,24,44,28,48,28,56,36,0,5.9,0,0.6,1,21.2,0,4.6,-1.1,0.8,0.7,9.1,0,1.4,-4.1,0.4,-0.4,-8.7,-4.8,0,0,-0.5,-0.9,-18.2,-0.5,4.5,0,-0.1,0.6,12.1,0,2.6,-2.4,0.6,0.2,0.4,0,2,-7.7,0.3,-0.9,-20.3,0,6,-10.6,0.3,0.8,-13.7,0,10.9,-10.2,0.6,1.3,-10.8,0,10.9,-6,0.5,0.9,9.5,0,9.7,-3.2,0.6,1.2,16.2,0,6.7,-0.5,0.4,1.1,18.4
82,140,388,149,82,68,80,40,52,32,40,44,0,0,28,36,52,32,24,12,28,16,40,24,48,28,52,32,52,28,0,4.6,0,-0.2,1.9,18.4,0,11.2,-0.9,0.8,1.6,27.9,-0.5,6.5,-1.9,0.7,-0.5,9.5,-7.8,0,0,0.1,-1.6,-24.9,-1,1.5,0,-0.4,1.1,0.7,0,8.9,-1.3,0.7,0.6,21.6,0,1,-10.4,0,-1.6,-23.7,0,2,-10.7,0,1,-20.7,0,4.4,-8.1,0,2.9,-7.4,0,12.6,-4.9,0.6,1.9,20.4,0,15.8,-2.9,0.5,2.5,35.8,0,13.6,0,0.5,2.5,35.3
95,161,407,168,83,67,52,28,48,28,44,32,48,52,100,36,36,20,24,72,36,24,64,40,48,28,48,24,48,28,0,7.8,-0.8,0.7,1.8,18.8,0,9.8,-3.2,0.8,3,15.2,0,2.4,-3.6,0.2,1.1,-7,-8.6,1.9,0,-0.6,-2.2,-16.1,0,2.8,0,0.4,0.8,14,0,6.6,-2.8,0.4,1.5,3.4,0,1.2,-11.9,0.1,-2.2,-18.8,0,2.6,-7.8,0.4,1.4,-12.5,0,5.5,-3.6,0.6,3.8,11.2,0,11.6,-3.2,0.3,3.3,19.5,0,13.2,-2.3,0.4,3.5,25.2,0,12.7,-1.8,0.3,3.2,25.4
90,164,420,381,99,79,72,32,60,40,16,8,0,0,68,24,24,12,0,0,0,0,48,32,44,28,52,32,64,36,0,10.4,0,0.9,-1.4,37.4,0,4.3,-0.7,1.1,0.1,11.7,0,0.4,-6.3,0.3,0.4,-19.8,-7.5,0,0,-0.9,-0.1,-27,0,9.1,0,0.5,-1.2,30.9,0,0.7,-2.5,0.6,-0.6,-6.7,-7.3,0,0,-0.6,2,-27.7,-4.7,0,0,-0.2,2.2,-16.9,0,6,-7.2,-0.4,0.3,-4.3,0,9.3,-6.4,0.2,-1.7,2.5,0,6.5,-2.4,0.5,-1.7,11.2,0,5.4,0,0.4,-1.4,17.2
96,147,400,301,82,71,60,40,40,24,0,0,48,56,64,40,0,0,20,8,36,20,44,28,44,28,44,28,44,28,0,12.7,0,0.3,-1.7,38.1,0,4.5,-4.7,0.1,-0.8,-4.1,-10.6,0,0,-0.7,1.1,-44.5,-8,3,0,-0.5,1.2,-12,0,11.2,0,0.4,-1.4,35.8,-5.5,0,0,0.3,0.5,-24.2,0,0.6,-13.2,-0.5,1.8,-33.7,0,0.9,-8.8,0.2,1.3,-19.5,0,4.1,-6.6,0.2,-1.6,-8.1,0,7.3,-7.4,0.2,-1.3,-9.1,0,6.8,-6,0.4,-1.2,-5.5,0,7.3,-3.9,0.5,-1.1,3.6
85,157,408,172,91,51,92,28,0,0,0,0,20,36,96,36,0,0,0,0,12,20,36,24,48,32,52,32,48,28,0,4.3,0,0.6,1.2,19.7,-3.4,0,0,1.1,1.2,-12.9,-5.5,0,0,0.5,-0.7,-24.2,-1.6,0.8,0,-0.8,-1.1,-1.7,0,4.9,0,0.3,0.7,23.5,-4.3,0,0,0.8,0.7,-17.2,-3.9,0,0,-0.6,1.5,-10.9,-0.4,0.4,-3.8,0.1,4.8,-7.7,0,2.4,-7.6,0.4,7.3,-10.9,0,5.9,-6.7,0.7,5.2,2.1,0,6.4,-3.9,0.6,2.6,9.6,0,4.5,-1.6,0.7,1.1,8.6
71,136,339,152,76,81,80,28,48,28,0,0,0,0,72,20,36,20,0,0,24,12,36,20,48,32,44,28,44,24,0,4.6,0,0.5,1,18.4,0,4.6,-0.8,0.7,0.8,9.8,-2.1,0,0,0.4,-0.3,-5,-3.9,0,0,-0.7,-1.2,-14.8,0,1.9,0,-0.2,0.6,6.8,0,2,-1.2,0.7,0.5,1.5,-8.3,0,0,0.1,-0.3,-23.2,0,0.9,-6.1,0.1,1.7,-12.4,0,2.3,-6.1,0.3,2.9,-6.8,0,9,-5.1,0.5,1.9,11.4,0,9.3,-2.8,0.4,1.8,14.3,0,6.9,-0.8,0.4,1.4,13.5
75,125,353,183,63,93,40,32,64,16,28,52,0,0,44,24,68,24,24,16,32,20,36,24,40,24,40,24,40,32,-0.5,7.3,0,-0.1,2.4,14.3,0,7,0,1,2.5,22.4,0,1.2,-0.8,0.3,0.2,3.5,-6.9,0,0,-0.5,-2.8,-16.5,0,4.6,-1,0.7,1.4,8.7,0,2.8,0,0.5,1.4,9.5,0,1.5,-9,0.4,-0.4,-19.8,0,3,-11.1,0.5,3.6,-17.4,0,6.3,-10.1,0.8,4.7,-4.8,0,7.5,-5.4,0.6,3,5.3,0,8.3,-2.7,0.6,3,11.2,-0.5,8.1,-0.8,0.7,2.5,14.5
78,137,368,148,83,69,64,24,40,24,28,16,0,0,52,20,36,20,20,12,24,12,44,16,44,28,40,24,48,24,0,9.4,0,0.7,1,30,0,9.3,-1.5,1.2,1.8,15.6,0,2.8,-6.8,0.4,0.8,-11,-8.9,0,0,-0.9,-1.2,-30.2,0,7.2,0,0.1,0.1,18.7,0,6,-3.6,0.7,1.1,3.6,0,1.1,-12.5,-0.5,1.8,-31.4,0,1.5,-7.1,-0.4,4.6,-13.8,0,1.6,-5.7,-0.4,4.8,-5.6,0,14.8,-5.5,0.7,2.8,21.5,0,13,-2.4,0.6,1.4,21.2,0,10.9,0,0.7,1.2,26.1
82,145,357,129,101,80,44,24,60,40,52,48,16,8,40,20,48,40,28,16,36,20,40,28,36,24,36,36,40,36,0,2.8,-0.4,0.7,0.7,5.5,-1.4,4.5,0,1.9,0.9,11.6,-1.8,2.3,0,1.3,0.3,2.7,0,0.4,-3.7,-1.3,-0.9,-10,0,1.1,-1.1,-0.5,0.3,0.3,-1.4,3.4,0,1.6,0.7,6.2,0,1.2,-9.1,0.2,0.9,-23.8,0,2.1,-11.4,0.3,2.6,-23.6,0,6.4,-10.1,0.8,2.6,-7.4,0,9.4,-6.3,1,1.2,3.1,-0.4,9.8,-3.9,0.9,1,8,-0.6,6.8,-0.8,0.9,0.8,11.8
69,178,357,137,80,63,44,20,72,20,56,20,0,0,36,16,68,20,0,0,16,8,36,20,44,28,48,28,68,24,0,4,-0.7,0.4,1,8.3,0,8.4,0,0.9,0.9,30.2,0,4.6,0,0.5,-0.6,12.8,-6.4,0,0,-0.7,-1.2,-23,0,1,-1.2,0.4,0.5,-0.3,0,5.7,0,0.7,0.8,19.3,-7.8,0,0,-0.2,-0.1,-21.8,0,0.7,-7.9,0.1,2.4,-16.8,0,4.7,-7.1,0.2,3.4,-2.9,0,10.2,-3.3,0.7,1.2,18.5,0,11.7,-0.8,0.7,1.6,26.8,0,10.2,0,0.6,1.6,34.6
103,142,366,161,94,70,36,36,52,32,20,52,40,52,32,16,60,40,28,16,44,28,48,32,52,36,52,32,48,32,-0.5,8.4,-3.3,1.4,1.8,7.5,0,6.4,-1.3,1.1,1.5,14.3,0,0.5,-3.1,0.4,-0.6,6.6,-7.4,1.9,0,-1,-1.3,-12.4,0,5.8,-3.1,0.8,1,1.8,0,3.3,0,0.7,0.4,9.9,0,1.3,-5.6,0.1,-1.1,-17.2,0,5.6,-9.2,0.1,1.4,-17.1,0,12.2,-15.3,0.3,2.8,-10.5,0,12.3,-11.1,0.7,2.2,-1.4,0,12.6,-7.2,0.5,1.9,12.6,0,11.4,-4.7,0.5,1.6,14.2
85,200,385,174,74,62,52,24,52,28,32,16,36,52,32,16,48,28,28,72,40,28,52,32,48,32,48,28,52,28,0,4.6,-1.1,1.6,3.1,10.2,0,7,-1.7,1.3,3.4,15.9,0,3.2,-0.9,-0.3,0.7,3.9,-5.8,1.6,0,-1.4,-3.4,-11.1,0,1.7,0,0.9,1.8,2.7,0,5.4,-1.2,-0.2,1.7,11,0,1.3,-4.8,-1.1,-1.8,-2.6,0,5.5,-6,-1.4,4,-3.4,0,9.9,-5.4,-0.8,8.6,13.9,0,14.2,-6.2,1.1,7,19.2,0,12.8,-2.6,1,5.3,25,0,11.2,-1.3,1,4.3,26.5
80,185,354,166,107,75,56,28,48,28,0,0,20,52,56,28,32,16,24,16,36,24,60,36,52,32,52,32,52,28,0,11.5,-1,1.2,3.7,31.4,0,7.1,-1.5,1.4,2,14.6,-4.5,0,0,0.3,-1.6,-18,-9.3,1.3,0,-1.3,-2.8,-21,0,8,0,0.5,2.7,22.4,0,1.4,-1,0.8,0.3,0.4,0,0.9,-8.5,-0.6,-1.6,-19.4,0,1.7,-4.7,0.3,2.6,-9.2,0,2.6,-3.6,0.5,4.3,2.8,0,6,-2.6,1,3.5,12.5,0,9.3,-1.7,0.9,3.7,22.4,0,11.2,-1,0.9,3.8,28.3
94,163,401,159,106,53,60,40,28,12,20,12,36,68,60,56,24,12,0,0,20,56,52,56,60,36,68,40,68,36,0,8.6,0,0.4,1.6,25.8,0,0.8,-5.8,0.9,0.5,-20.9,0,1,-14.1,0.6,-1,-46.9,-2.3,0.9,0,-0.6,-1.1,-4.8,-0.6,11.3,0,-0.3,1.3,33.3,0,0.8,-9.8,0.7,-0.2,-34.3,-7.2,0,0,0,-1,-25.9,-1.9,3.4,-3.7,0,2.6,-6.2,-0.9,8.9,-4,0,2,16.6,0,6.6,-2,0.5,1.5,17.4,0,5.7,0,0.4,1.5,19.3,0,3.1,0,0.4,1,10.5
80,162,383,141,84,70,52,24,44,28,32,36,36,60,32,16,36,32,0,0,32,20,48,28,52,36,48,32,48,28,0,3.5,-0.9,0.6,1.5,7.5,0,7.6,-1.3,0.8,1,14.4,-1.3,4.7,-0.6,0.2,-0.5,5.2,-5.4,1,0,-0.7,-1.1,-12.2,0,1.8,-1.2,0.4,0.9,0.7,-0.4,6.2,-0.9,0.5,0.2,9.4,-3.8,0,0,-0.1,-0.8,-9.1,0,2.6,-4.4,-0.4,1.9,-1.4,0,5.7,-5.6,-0.7,3.6,4.7,0,11,-5.4,0.6,2.7,22.2,0,12.8,-3,0.5,2.2,25.3,0,10.8,-1.5,0.4,1.9,23.5
79,154,350,160,94,82,36,20,64,20,48,40,0,0,28,16,72,24,24,16,28,16,40,24,40,28,36,20,36,20,0,4,-1.6,0.5,1.3,3.4,0,5.2,0,1,0.6,16.6,-0.9,3.9,0,0.6,-0.9,8.1,-4.8,0,0,-0.7,-0.9,-18.2,0,2.2,-2.2,-0.2,1.1,-1.8,0,4.4,0,0.9,0.2,15.8,0,1.1,-6.1,-0.5,0.6,-17,0,1.7,-8.6,-0.3,2.4,-20,0,2.8,-11.4,0.1,3.4,-19.4,0,5.7,-7.7,0.2,2.3,-4,0,5.9,-3.4,0.4,1.3,2.5,0,6.1,-1.3,0.4,0.9,8.1
92,154,346,158,96,91,44,40,52,24,88,68,24,72,40,44,88,40,32,20,36,24,60,44,44,44,44,40,44,40,-0.8,7.8,-1.8,0.8,1.3,13.1,0,8.4,0,1.4,1.9,21.8,0,1.3,0,0.8,0.6,5.7,0,0.7,-7.4,-1.2,-1.4,-13.2,-1,2.8,-1.6,-0.3,0.3,1.6,0,4.5,0,1.4,1.1,19.8,0,3.6,-10,-1.2,-0.8,-22.3,0,7,-12.1,0.2,2.8,-18.8,0,11.2,-5.8,0.9,4.1,22,-0.6,17.6,-3.8,1.1,3,31.3,-0.7,11.6,-1.9,1,2.1,21.4,-0.7,8.6,-1,0.9,1.5,16.4
84,152,383,144,71,64,68,28,48,44,40,44,20,8,36,24,48,44,36,20,40,24,52,32,60,36,48,48,48,48,0,6.4,0,0.6,1.1,21.7,-0.7,16.6,0,1.3,1.9,39.1,-0.7,10.1,-0.7,0.7,0.7,18.6,0,0.4,-11.5,-0.9,-1.4,-29.5,0,0.9,-1.9,-0.1,0.3,0.9,-0.7,13.3,0,0.9,1.2,31.2,0,3.4,-14.6,0,-0.9,-23.1,0,4.9,-11.6,0,-0.1,-11,0,6.5,-1.4,0,1.8,14.4,0,19.4,-1.8,0.3,1.7,56.4,-0.9,19.6,-1.3,0.3,-1.4,44.7,-1,16.3,0,0.4,-1.1,37.9
86,177,367,147,113,79,72,20,48,32,36,20,44,56,72,40,44,24,0,0,0,0,44,28,44,28,48,32,48,32,0,5.9,0,0.4,1.4,21.2,0,5.1,-3.7,0.8,0.8,3.4,0,2.5,-6,0.4,-0.7,-13.5,-5.1,0.9,0,-0.6,-1,-10.3,-1,4.8,0,-0.1,0.9,16.2,0,3.2,-4.7,0.6,0.2,-5.2,-6.7,0,0,-0.4,-0.2,-20.1,-4.9,0,0,-0.3,2.1,-13.7,0,4.7,-6.8,-0.4,4.4,-0.5,0,12.9,-6.3,0.6,2.9,13.2,0,8.1,-4.7,0.7,0.9,8.2,0,6.5,-2.2,0.6,0.7,10.4
73,159,350,138,99,89,64,24,28,12,0,0,0,0,64,24,0,0,0,0,36,24,36,24,32,20,28,16,32,16,0,7.2,0,1.1,0.8,23,0,3.4,-1.6,1.8,1.3,1.5,-4.5,0,0,0.9,0.7,-16.2,-5.3,0,0,-1.3,-1.1,-16.9,0,5.8,0,-0.1,-0.2,18.5,-2.9,0,0,1.1,1.1,-5.2,-3.9,0,0,-0.8,-0.5,-12.4,0,7.9,-8.9,0.5,1.7,-5.3,0,10.1,-8.8,0.7,2.2,-1.2,0,4.5,-7.4,0.8,1.5,-9,0,3.6,-3.5,0.8,1.5,0.1,0,2.9,-1.6,0.7,1.5,3
75,156,322,172,105,98,36,16,68,32,36,52,20,12,44,32,52,32,24,12,36,24,36,24,36,24,36,20,40,20,0,8,-1.2,0.7,1.6,12.3,-0.8,4.7,0,1.3,1.4,15.1,-3.2,1.7,0,1.1,-0.6,-4,0,1,-7.4,-1.2,-1.2,-18.2,-0.4,5.7,-0.9,-0.6,1.1,11.4,-0.8,1.7,0,1.3,0.1,3.5,0,1.3,-6.6,-0.6,0.6,-15.6,0,3.4,-7.8,-0.3,3.4,-12.6,0,9.5,-9.1,0.2,5.2,-2.9,0,10.5,-7.1,0.3,3.5,3.3,0,7.5,-2.5,0.3,1.7,8.5,0,6.6,-0.8,0.2,1.3,11.8
73,137,369,143,77,67,72,28,56,32,36,24,0,0,56,20,44,28,20,12,28,16,44,24,48,32,48,28,48,24,0,5,0,0.5,0.8,18,0,6.4,0,0.5,0.2,17.9,0,2.3,-1.9,0.1,-0.7,0.3,-5.6,0,0,-0.5,-0.4,-21.2,0,2.7,0,0.3,0.6,7.5,0,4.3,-0.9,0.3,-0.3,8,0,0.9,-7.2,0,-0.2,-19.2,0,2.6,-5.6,0,1.1,-10.9,0,5,-3.9,0,1.9,3.2,0,9.2,-3.3,0.6,1.3,15.4,0,11,-2.1,0.4,0.6,22.7,0,9.5,0,0.4,0.5,22.8
78,228,429,130,94,53,40,20,64,28,64,32,0,0,24,8,64,28,20,12,24,12,40,24,44,24,48,28,52,28,0,3.6,0,0.3,0.4,7.2,0,6.3,0,0.8,1.4,20.1,0,2.8,0,0.7,1,8.9,-4.8,0,0,-0.5,-0.9,-11.5,0,0.6,0,-0.3,-0.4,0.7,0,4.4,0,0.7,1.2,14,0,0.5,-8.3,-0.4,-0.8,-24.4,0,0.9,-7.1,0.1,-0.1,-21.7,0,2.4,-4.6,0.3,0.3,-6.2,0,6.1,-3.4,0.4,1,7.3,0,7.6,-1.2,0.4,1.5,16.3,0,6.9,0,0.4,1.6,17.9
80,135,379,149,97,78,56,32,44,28,20,64,28,56,64,36,28,16,16,4,28,16,32,20,48,32,48,32,48,32,0,11.3,0,1,0.4,31.6,0,5.6,-2.9,1.9,0.5,6.5,-7.1,0.7,0,0.9,0.2,-20.6,-8.5,1.3,0,-1.4,-0.5,-20.3,0,8.6,0,-0.2,0.2,27.5,0,0.4,-4,1.4,0.3,-5.9,0,0.5,-16.3,-0.9,0.8,-45.2,0,1.4,-14.2,0.3,3.7,-37.8,0,2.4,-13.1,0.4,4.3,-27.6,0,4.8,-9.3,0.8,1.5,-8.9,0,6.4,-6.3,0.9,0.9,0.2,0,6.5,-3.1,0.7,0.6,8.8
81,180,386,137,106,65,72,36,40,24,44,32,28,44,72,52,40,28,28,16,20,12,32,36,40,24,40,20,40,20,-0.6,5.7,0,0.7,0.8,19.9,0,6.4,-2.6,0.9,1.7,7.6,0,0.9,-4,0.6,1,-7.7,-6.1,0.7,0,-0.7,-1.1,-11.3,-0.6,2.8,0,-0.3,-0.2,9.4,0,3.5,-3.2,0.7,1.2,0,0,0.7,-5.9,-0.4,-1.4,-10.9,0,1.5,-6.2,-0.3,-0.1,-8.3,-0.5,18.2,-10.5,0.3,-0.6,7.7,0,16.3,-6.4,0.6,1.1,18.6,0,10.2,-2.1,0.6,1.4,16.2,0,6.6,-0.8,0.7,1.3,11.8
83,135,359,169,80,73,36,32,48,28,52,16,24,48,60,32,48,28,28,20,40,24,40,28,44,28,40,24,44,20,-0.4,4.2,0,0.8,1.4,7.2,0,4.5,-1.2,1,1.4,9.4,0,1.1,-1.1,0.6,0.2,1.5,-4.3,0.6,0,-0.9,-1.3,-8.7,-0.6,2,0,-0.1,0.7,5.4,0,2.3,-1.1,0.7,0.7,4.2,0,2.8,-6.5,0,-0.3,-13,0,6.8,-8.7,0,2,-3.8,0,9.9,-13.2,0,3.3,-9.2,0,10.9,-9.3,0.8,1.5,5.3,0,9.1,-4.3,0.6,1.1,7.1,0,6.3,-0.9,0.5,1.2,11.9
103,147,356,162,80,73,48,20,48,28,0,0,32,64,64,20,48,28,36,24,44,28,52,36,44,28,40,36,48,40,0,8.7,-1.5,0.8,1.2,17.8,0,8.2,-2.5,1.3,0.8,13.6,-1.8,0,0,0.7,-0.5,-7.5,-8.8,1.5,0,-1,-1,-20.4,0,5,0,0.3,0.8,16,0,3.9,-2,1,0.3,4.9,0,3.9,-4.5,-1.1,0.8,2.5,0,8.8,-6.8,-0.5,2.5,1.7,0,16.4,-10.2,-0.1,4.8,18.2,0,18.9,-9.8,0.1,2.9,18,-0.9,17.1,-5.1,0.4,1.2,18.2,-0.9,12.4,-2.1,0.5,0.6,23.6
77,142,392,160,88,57,44,32,72,32,28,60,0,0,40,40,88,32,20,12,24,12,44,28,48,28,60,32,60,28,-0.5,9.8,0,0.7,3,21.2,0,7.1,0,0.8,3,25.5,0,1.5,-4,0.2,0.2,-1.3,-8.3,0,0,-1,-2.8,-26.5,-0.5,6.9,-1.3,0.5,1.3,12.4,0,3.1,0,0.4,1.5,13.6,0,1.1,-10.4,0.5,-0.3,-25.9,0,1.6,-8.7,0.8,4.9,-18.9,0,4.1,-4.7,0.7,5.9,1.5,0,6.9,-1.1,0.6,2.8,14.8,0,9.7,0,0.6,2.8,29.1,0,9,0,0.5,2.6,27
79,0,376,165,0,70,76,28,52,32,44,32,0,0,64,32,48,32,28,20,28,20,36,20,48,36,48,32,52,28,0,6.1,0,0.6,1.6,23.1,0,9.9,-2,0.5,1.4,22.9,0,3.8,-3.4,0.3,-0.8,2.2,-7.9,0,0,-0.3,-1.5,-20.5,0,2.6,0,-0.1,1,8.3,0,6.6,-2.2,0.3,0.6,12.3,0,2,-15.7,0,-0.5,-41.1,0,3.1,-16.6,0,4.1,-38.8,0,2.6,-8.7,0,6.2,-16.2,0,11.1,-5.2,-0.1,2.5,16.2,0,11.2,-1.9,-0.1,2,23.4,0,10.1,0,0,1.5,26.2
90,145,364,175,79,71,72,24,36,20,0,0,0,0,80,20,28,16,28,16,32,24,40,28,44,32,44,28,48,24,0,5,0,0.8,1,18,0,4.7,-1.6,1.3,0.6,4.6,-3.2,0,0,0.6,0.2,-14,-5.2,0,0,-0.7,-0.6,-12.4,0,2.9,0,-0.2,0.5,11.6,0,2.4,-2.3,0.9,0.1,-1.7,0,1.2,-8.3,-0.5,0.7,-23.3,0,3.6,-15.3,-0.7,5.2,-37.1,0,6.2,-13.5,-0.8,4.9,-22.7,0,10.6,-8.7,0.7,1.6,-1,0,11.3,-4.2,0.5,0.6,13.9,0,8.2,-0.7,0.5,0.2,18.1
91,176,372,161,79,56,44,28,92,36,16,60,0,0,36,20,92,52,24,16,40,24,44,28,48,32,48,28,48,28,0,7.6,-2.1,0.6,0.4,12.1,0,4.3,0,1.3,0.1,19.7,0,0.5,-3.6,0.9,-0.4,2.6,-5.9,0,0,-1,-0.2,-15.3,0,5.5,-2.7,-0.2,0.4,4,0,2.4,0,1.1,-0.2,11,0,0.9,-7,-0.5,1.9,-20,0,3.5,-10.8,-0.4,2.9,-21,0,8.2,-14.3,0.2,3.5,-13.4,0,22.2,-13.6,0.6,0.2,15.2,0,21.9,-7.3,0.8,-0.7,33.6,0,12.8,-2.1,0.7,-0.8,25.7
83,122,386,174,54,66,36,36,64,44,72,44,0,0,0,0,84,32,24,16,32,20,40,24,48,32,44,36,44,36,-0.6,3.5,-0.9,-0.4,0.7,4.1,-1.2,9.5,0,-0.5,0.9,29.2,-0.6,7,0,-0.2,0.4,24.6,-6.6,0,0,-0.9,-1.3,-22.4,-3.6,0,0,0.3,0.2,-12.2,0,8.6,0,0.6,1.2,36.1,0,1.4,-6.5,0.2,-1,-17.9,0,3.3,-11.2,0.2,1.3,-26.1,0,4.5,-10,0.3,3.1,-13,0,7.6,-6.2,0.5,2.5,4.6,-0.4,10.8,-1.8,0.4,1.9,20.3,-0.5,10,0,0.4,1.6,21.6
80,121,287,156,67,104,28,16,28,24,64,36,36,40,28,16,68,32,20,48,52,32,40,24,32,20,24,24,24,24,0,4.8,-6.6,1,1,-11.7,-0.5,5.9,-2.6,2,0.9,5,-1.7,5.7,0,1,-0.2,16.2,-5.2,4.3,0,-1.5,-0.7,-0.6,0,2.7,-5.3,0.1,0.4,-11.1,-1,4.4,0,1.5,0.7,14.1,0,0.7,-0.8,-0.8,1.1,24.1,0,4.7,-2.6,0.2,3.1,9.1,0,15.3,-12.5,1.2,6.5,8.1,0,14.2,-11.6,1.1,2.6,2.4,-0.5,8,-6.9,0.9,1.4,-1.7,-0.5,5.1,-4.8,0.8,0.9,-1.8
78,147,324,155,75,92,44,24,44,24,28,12,32,48,40,20,40,20,28,16,36,24,44,24,48,28,44,24,36,36,0,6,-1.3,0.8,2.7,11.2,0,8.8,-2.3,1.5,2.5,15.2,0,3.1,-1.2,0.9,-0.5,2.2,-7.5,1.7,0,-1.1,-2.6,-13.8,0,1.9,0,-0.3,1.5,3.8,0,5.8,-1.6,1.2,1.2,8.4,0,1.7,-4.7,0.3,-1.2,-8.9,0,5.8,-7.8,0.1,4.1,-6.7,0,8.2,-6.5,0.7,4.7,8.9,0,10,-4.2,0.8,2.6,15.6,0,10.2,-3.6,0.8,2.6,15.2,-0.4,9.5,-2.4,0.7,2.4,12
76,136,373,152,80,65,40,20,48,28,48,28,20,48,24,40,48,28,32,20,36,24,48,32,44,28,48,28,44,24,0,2.3,0,0.8,1.2,4.6,0,7.4,-0.7,1.6,2.9,16.9,0,5.5,-0.7,1.2,1.7,12.5,-4.8,0.4,0,-1,-2.1,-11.1,-2.1,0.4,0,-0.4,-0.1,-3.3,0,6.4,-0.6,1.4,2.2,14.6,0,1.3,-7.7,0,-0.9,-14.9,0,2.8,-7.7,0,2.6,-8.8,0,5.9,-5.8,0,3.6,3.7,0,8.8,-2.7,0.8,2.9,13.9,0,7.7,-1.4,0.9,2.8,15.9,0,6.6,-1,0.8,2.5,12.7
82,168,374,167,78,70,60,32,52,32,44,28,36,56,40,40,52,32,0,0,24,16,52,24,56,36,52,32,52,28,0,3.6,0,0.4,1.7,10.8,0,13.1,-3.2,0.8,3.5,28.3,0,9.5,-3.1,0.6,1.9,14.7,-8.4,1.6,0,-0.6,-2.5,-19,-2.9,1.6,0,-0.2,-0.2,-2,0,11.3,-3.2,0.7,2.6,23.6,-10.7,0,0,-0.5,-1.6,-25.6,0,1.8,-10.1,-0.2,2.2,-22.1,0,4.9,-4.2,0,5.1,6,0,16.8,-4.6,0.5,4.3,38.8,0,14.8,-2.7,0.6,3.7,33.6,0,12.5,-1.5,0.6,3,30.1
81,0,382,209,63,67,44,28,80,28,64,44,0,0,32,20,64,44,24,12,36,20,44,28,52,32,48,28,48,24,0,5.5,-1.3,0.9,1.8,10.6,0,14.8,0,0.2,2.4,59.2,-1.3,12.3,0,-0.7,0.7,37.5,-9.4,0,0,-0.3,-2.1,-35.7,0,2,-5.7,0.4,0.8,-12.7,-0.7,13.6,0,-0.1,1.9,42.7,0,1.7,-10.4,0.1,-1.1,-22.9,0,6.4,-11.4,0.2,3.6,-9,0,8.9,-8.4,0.1,5.4,6.1,0,17.9,-2.8,-0.2,4.5,44.5,0,16.8,-0.6,-0.1,3.4,40,0,14,0,-0.1,2.9,33.6
80,117,363,142,72,73,60,24,52,24,48,28,0,0,0,0,48,28,20,12,28,16,36,20,44,28,40,20,52,24,0,2.9,0,0.6,0.9,8.7,0,4.6,0,0.7,0.8,11.9,0,2.2,0,0.5,-0.8,5.2,-3.1,0,0,-0.8,-0.7,-7.4,-0.5,0,0,-0.2,0.4,-0.5,0,3.3,0,1,0.5,7.9,0,0.5,-5.1,0.2,0.5,-13.7,0,1.5,-5.8,0.1,1.2,-14.1,0,3.9,-6.1,0.1,2.5,-7.6,0,7,-3.6,0.5,2.2,7.5,0,6.8,-1.3,0.6,1.6,11,0,6.2,0,0.5,1.1,16.1
82,158,410,141,87,54,48,24,44,28,40,28,36,52,44,44,44,28,20,12,28,16,40,28,40,28,44,28,44,24,0,4.3,0,0.6,-0.5,10.3,0,6.1,-2.6,1.2,0.5,8.2,0,2.3,-3.1,0.8,0.6,-0.3,-5.6,1.9,0,-0.9,-0.1,-8.9,-0.5,2.9,0,-0.1,0.2,5.6,0,4.3,-3.4,0.9,0.1,4.7,0,1.3,-6.4,0.4,1.4,-17.9,0,2.5,-6.1,0.5,1.4,-13.5,0,5.4,-10.8,0.8,1.4,-15.1,0,9.9,-9.7,0.5,-2.1,-7.3,0,8.6,-4.9,0.6,-0.9,6.2,0,7.3,-2.1,0.6,-0.3,11
71,150,350,165,81,70,48,32,44,36,56,40,0,0,36,20,60,36,24,16,36,20,52,36,44,24,40,32,44,32,0,5.9,-0.9,0.8,2.1,12.7,-0.8,12.7,0,0.7,2.9,27.1,-1.5,7.1,0,-0.2,0.8,18,-9.3,0,0,-0.6,-2.5,-22.3,0,1.3,-1.9,0.4,0.7,-1.8,-1,9.9,0,0.2,1.8,28.7,0,2.3,-10.6,0,-1.4,-20.6,0,5.2,-5.6,0,3,-0.7,0,15.9,-3.1,0,3.9,38.2,0,17.1,-1.7,-0.7,3.3,35.6,-0.4,14.4,-0.7,-0.6,2.9,27.8,-0.4,12.1,0,-0.3,2.5,26.4
73,154,408,151,81,56,60,36,60,32,68,24,0,0,0,0,72,32,0,0,0,0,48,24,60,36,56,36,56,32,0,4.7,0,0.8,1.1,14.1,0,9.6,0,1.1,1.5,28.8,0,4.8,0,0.2,0.4,16.3,-7,0,0,-0.9,-1.2,-19.6,0,0,0,0.3,0.4,0,0,7.3,0,0.6,0.8,26.2,-9,0,0,-0.3,-0.7,-27,-8.6,0,0,0.3,0.9,-25.8,0,2,-2.3,0.9,2.9,1.2,0,10.3,-2.2,0.9,3.1,27.4,0,15.9,-1.7,1,2.5,41.8,0,15.5,0,0.8,2.2,43.4
87,171,380,152,102,65,40,36,20,8,20,8,24,40,56,40,20,8,32,20,36,24,40,24,36,24,40,24,40,24,-0.7,5.8,-0.7,0.8,1.1,10.1,0,1.7,-2.5,1.3,1.7,-2.3,0,0.5,-4.3,0.7,0.7,-11.5,-3.9,1.4,0,-0.9,-1.4,-5.4,-0.6,5,0,-0.2,0.2,13.4,0,0.4,-2.4,0.9,1.1,-6.3,0,1.4,-4,-0.6,-0.2,-8.2,0,6.3,-7.9,0.2,1.8,-6,0,10.6,-11.1,0.6,2.4,-3.2,0,9.6,-11.2,1,1.7,-5.2,0,6.2,-5,0.9,1.7,4.4,0,3.9,-1,0.7,1.6,6.6
76,166,384,172,100,53,48,36,72,40,28,16,0,0,44,36,80,44,28,16,32,16,56,40,52,32,56,32,68,32,-0.5,8.4,0,0.8,2.4,19.7,0,7.9,0,1.1,2.4,28.4,0,1.2,-1,0.4,0.1,-0.2,-8.1,0,0,-0.9,-2.4,-22.6,-0.7,4.7,0,0.4,1.2,9.6,0,3.6,0,0.7,1.2,14.4,0,2.3,-10,0.3,-1,-22.8,0,3.3,-6,0.3,4.4,-9.2,0,5.1,-3,0.7,4.3,10.6,0,9.9,-1.9,0.8,3.1,23.5,0,8.4,0,0.7,2.3,23.5,0,7.7,0,0.6,1.9,26.1
93,173,361,164,108,80,60,36,44,48,40,44,20,8,24,12,40,44,28,16,32,20,40,20,48,32,40,40,76,48,-0.4,3.2,0,0.8,1.1,9.2,-1.1,8.1,-0.4,1.8,1.5,16.3,-0.6,5.9,0,1.1,0.5,11.1,0,0.6,-5.5,-1.2,-1.2,-12.6,0,0.8,-2,-0.4,0.4,-1.5,-0.8,7,0,1.4,0.9,13.1,0,1.6,-8,-0.8,-0.3,-21.8,0,2.3,-11,-0.2,2,-27.2,0,1.5,-7.2,0.1,4.4,-12.8,0,7.8,-4.3,0.5,3.4,13.6,-0.5,9.5,-1.4,0.7,2.1,17.1,-0.7,8.5,0,0.7,1.5,31.5
90,155,418,162,118,60,44,24,56,40,24,72,40,64,44,40,36,24,16,8,28,16,48,24,52,32,52,36,56,36,0,10.7,-2.8,1.6,1.7,18.5,0,3.3,-2.6,1.4,1.4,3.5,0,0.7,-8.7,0.2,-0.3,-16.9,-6.7,2.6,0,-1.3,-1.5,-13.5,-0.5,9.6,-1.9,0.9,1,17.7,0,0.7,-4,0.6,0.5,-11.6,0,0.5,-5.7,-0.9,0.9,-13.2,0,2.2,-5.1,0.3,2.4,-10.2,0,4.2,-7,0.7,3.6,-4,0,6.6,-6.3,0.7,1.9,2,0,8.1,-5.2,0.7,1.7,8.6,0,8,-3.5,0.6,1.6,14.7
87,138,383,178,68,66,68,28,72,32,52,32,0,0,0,0,72,32,24,16,32,20,40,24,56,40,56,36,52,28,0,3.6,0,0.7,2.1,12.2,0,8.5,0,1,3.3,30.6,0,4.9,0,0.5,1.2,12.7,-6.1,0,0,-0.8,-2.7,-21.9,-0.6,0,0,0.3,0.5,-1.3,0,6.7,0,0.7,2.2,24.1,0,1.2,-7.7,0,-1.1,-20.1,0,2.9,-9.2,0,2,-19.3,0,6,-6.1,0,6.4,-0.2,0,12.6,-3.7,0.7,7.4,30.8,0,15.2,-1.5,0.6,5.2,39.8,0,11.2,0,0.4,3.5,29.1
88,159,371,167,92,60,36,24,32,40,44,36,16,60,24,12,36,40,32,20,36,20,52,36,36,36,36,36,36,36,0,3.4,-2.5,0.6,1.6,0.1,-1.2,11.2,-2,1.1,4.2,13.3,-1.1,7.8,-0.5,0.6,2.6,15.6,0,0.5,-7.5,-0.8,-2.9,-9.9,0,0.8,-2.2,-0.1,-0.7,-6.5,-1.2,9.5,-1.1,0.8,3.3,14.4,0,4.3,-7.2,-0.6,-0.5,0.4,0,8.4,-10.9,0.3,4.7,-11,0,19.3,-12.9,0.9,7.7,29.5,-1.9,26.8,-7.2,0.5,4.4,31.9,-1.7,15.9,-2.9,0.5,3.1,21.1,-1.5,10.8,-1.4,0.4,2.2,15.1
94,148,377,142,81,70,44,48,48,48,48,40,44,64,44,24,52,24,32,20,44,24,52,36,56,36,52,32,52,28,-0.6,6.6,-1.8,0.7,0.6,9.9,-0.8,6.3,-2.2,1.2,-0.4,9.8,0,1.7,-0.6,0.5,-0.7,3.1,-7.4,1.9,0,-0.8,0,-15.1,0,4.8,-1,0.4,0.5,8.5,0,2.5,-1.1,0.6,-0.5,4.3,0,2.5,-6.9,-0.5,0.4,-16.7,0,5,-8.3,0.3,0.7,-12.2,0,7.3,-8.3,0.5,0.3,-4.3,0,7.6,-6,0.5,-1.2,5.6,0,7.7,-3.6,0.5,-0.9,11.4,0,7.5,-2.2,0.4,-0.6,14.7
90,147,388,178,92,65,48,32,48,48,52,52,0,0,36,24,56,44,24,12,32,20,36,24,44,32,44,36,44,44,0,3.5,-3,0.5,0.9,1.8,-0.5,11.5,0,2,2.2,27,-1.2,11.8,0,1.5,1.4,28.7,-6.6,0,0,-1.3,-1.4,-17.1,0,1.3,-6.8,-0.5,-0.3,-16.7,-0.6,11.6,0,1.8,1.8,31.7,0,0.6,-6.5,-0.8,-0.5,-17.5,0,2.6,-12.5,-0.4,1.9,-28.4,0,3.6,-14.1,0.5,2.9,-33,0,7.3,-7.9,1.3,2.2,-6.1,-0.4,13.4,-4.7,1.3,2.3,18,-0.5,14.8,-2.4,1.4,2.4,26.8
78,195,331,148,102,98,48,28,84,32,76,24,28,56,52,32,76,28,0,0,20,12,40,28,44,28,48,32,48,28,0,5.9,-1.6,0.6,0.8,11.3,0,9.1,0,1.2,0.8,38.2,0,3.2,0,1.1,-0.6,12.1,-7.4,0.9,0,-0.7,-0.8,-18,0,1.5,-1.4,-0.5,0.5,1.7,0,6,0,1.1,0.4,22.8,-8.5,0,0,-0.7,0.7,-20.4,0,0.9,-9.7,-0.5,1.6,-24.3,0,8.3,-12.6,-0.9,3.7,-11.1,0,18.2,-10.6,0.9,1.7,14.6,0,13.3,-4.5,1,0.9,22,0,11.1,-1.5,0.9,0.5,23.6
83,147,330,133,96,78,48,24,68,32,84,40,0,0,32,16,72,32,0,0,24,16,52,36,52,36,52,28,68,32,0,6.3,-1.1,0.6,0.9,13.4,0,9.6,0,1.3,0.6,32.6,0,3.4,0,0.7,-0.8,14.2,-7.9,0,0,-0.9,-0.7,-23.7,0,1.5,-1.8,-0.1,0.7,-1.2,0,6.5,0,1,0.1,23.4,-10.8,0,0,-0.4,0.7,-34.5,0,1.3,-11.9,0.1,3.3,-34.2,0,6.1,-9.2,0.4,4.5,-0.7,0,17.3,-6.2,0.5,2,31.3,0,12.3,0,0.5,0.6,31.9,0,9.3,0,0.5,0.5,31.6
92,159,349,176,117,86,40,44,44,48,48,44,20,68,0,0,40,44,24,12,44,24,52,36,40,44,44,40,44,40,-0.4,6.3,-1.6,0.8,1.8,9.4,-1,12.6,-1.4,1.4,3,24.6,-0.6,6.4,0,0.7,1.2,14.7,0,0.8,-9,-1.6,-2.1,-14,-1.6,0,0,-0.2,0.5,-4.4,-0.9,9.8,-1,1.6,1.7,17,0,1.1,-9,-0.8,-0.7,-29.3,0,3.2,-10.4,0.1,4.2,-17.9,0,15.4,-10.6,0.7,6,16.7,-0.5,19.2,-6.1,1.3,4.2,23.3,-0.6,14.1,-2.2,1,2.7,25.8,-0.6,9.9,-0.6,1,1.8,19.9
93,178,361,132,80,74,60,36,68,24,64,32,0,0,32,12,68,20,20,8,28,16,36,24,48,32,48,28,60,28,0,4.4,0,0.2,0.4,13.2,0,4.7,0,0.6,0.5,15.9,-0.5,1.1,0,0.4,0.2,3,-4.4,0,0,-0.4,-0.4,-11.4,0,1.6,0,-0.1,0.2,2.5,0,3,0,0.5,0.3,10.2,0,0.7,-9.4,-0.6,-0.1,-27.5,0,1.6,-12.5,-0.4,2.1,-35.3,0,2.4,-11.5,-0.5,2.2,-27.9,0,8.4,-9.1,-0.6,0.9,-3.5,0,10.5,-3,-0.2,-1.1,18.6,0,6.7,0,-0.2,-0.9,20.1
100,145,359,149,95,81,32,36,28,48,24,52,28,64,28,56,28,40,44,28,48,32,56,40,48,32,36,44,32,44,-0.9,3.2,-0.6,0.7,0.1,3.7,-2.1,6.2,-3.8,1.1,1.1,-4.2,-1.8,3.3,-3.5,0.5,1.2,-7.7,0,1.2,-4.8,-0.9,-0.4,-0.8,0,1.5,-1,-0.1,-0.5,4,-1.5,4.9,-3.4,0.8,1,-2.4,0,5.6,-4.1,-0.8,1.5,6.6,0,8.5,-4.7,-0.6,2.3,9.2,0,13.9,-9.8,-0.3,3.9,17.4,0,18.6,-8.8,0.8,2.4,21.8,-1.8,11.5,-3,0.9,0.4,11,-2.1,5.9,0,0.8,0.3,6.1
83,180,381,145,68,50,40,24,92,36,92,32,0,0,0,0,88,36,0,0,0,0,32,16,52,36,52,32,56,32,0,3.2,-1.6,0.2,0.3,3.2,0,8.8,0,0.4,1.9,40.4,0,6.1,0,0.4,1.5,28,-6.1,0,0,-0.4,-1.6,-18.3,-1.9,0,0,0.3,-0.7,-8.3,0,7.1,0,0.4,2.3,31.2,-7.7,0,0,0,1,-24.6,-13,0,0,0,2.1,-46.8,0,2.1,-7.8,0,3.9,-16.9,0,13.9,-4,0.4,2.9,28.1,0,11.8,-1.8,0.3,2.3,27.4,0,8.5,0,0.2,1.5,23.8
96,151,373,147,102,67,56,36,56,36,52,32,24,64,20,8,56,32,44,28,44,28,60,40,48,44,48,48,48,52,0,6.8,-1.2,0.5,-1.7,17.4,0,19.2,-2.6,1,-1.4,50.6,0,12.7,-1.6,0.8,1.3,31.4,-12.8,1.9,0,-0.6,1.4,-36.2,0,0.8,-3.7,-0.3,-1.4,-6.6,0,15.9,-2.1,0.9,0.7,42.4,0,6.9,-19.8,-0.7,6.2,-28.4,0,11.6,-23.1,-0.1,7.2,-25.3,0,19.6,-19.1,-0.3,2.4,16.8,-0.4,36.4,-8.6,0.2,-3.1,69.8,-0.9,22.3,-3.4,0.1,-3,46.5,-1,15.4,-2.1,0.3,-2.2,32.4
114,191,383,222,98,76,52,32,84,52,68,64,28,84,52,32,72,60,36,24,48,32,60,44,44,24,44,44,44,48,0,7.9,-3.5,0.8,0.6,10,-2.7,6.8,0,1.3,0.6,23.7,-5.9,8,0,0.7,-0.2,11.9,0,0.7,-6.5,-1,-0.6,-11.6,0,6.2,-5.5,-0.2,0.4,-0.4,-3.9,6.7,0,1,0.2,15.6,0,1.9,-7.6,-0.8,2.6,-20.9,0,6.7,-16,-0.2,7,-28.8,0,9.5,-16.5,0.1,7,-11.1,0,13,-6.4,0.6,2.5,14.6,-1.3,12.2,-2.9,0.6,0.2,17.5,-1.6,8.8,-1.2,0.6,-0.6,14
84,217,420,221,117,68,52,28,48,32,28,16,44,60,60,20,48,32,0,0,16,8,36,20,52,36,52,36,52,36,0,4,-0.9,0.9,1.5,8.8,0,5.7,-2.2,1,0.5,9.2,0,1.8,-1.8,0.4,-1.1,-1.4,-4.7,1.5,0,-0.8,-1,-7.9,0,1.3,-0.4,0.5,1.3,3.5,0,3.8,-1.9,0.5,-0.4,5,-5.9,0,0,-0.4,-1.4,-25.9,0,0.5,-8.3,-0.4,0.3,-29.4,0,2.5,-9.6,-0.1,0.8,-24.3,0,5.5,-9.1,0.5,0.9,-9.3,0,8.2,-7,0.5,0.4,-1.1,0,7.5,-3.6,0.6,0.6,10.2
82,194,342,138,126,85,76,28,64,36,24,76,0,0,68,36,28,68,24,16,32,20,44,28,48,32,40,28,40,24,0,5.7,0,0.3,1.2,21.6,-0.9,2.6,0,0.8,0.1,7.3,-3.1,0.8,0,0.6,-1.3,-9.6,-4.5,0,0,-0.8,0.8,-16.2,0,5.3,0,-0.1,-1.2,18,-1.1,1.2,0,0.7,0.8,-1.4,0,0.9,-6.1,-0.6,0.2,-18.5,0,1.6,-4.1,-0.4,2.2,-8.1,0,5.4,-5.6,-0.4,4.5,1.8,0,9.7,-5.6,0.3,3.8,10.9,0,7,-3.9,0.3,1.2,4.7,0,4.9,-0.9,0.3,0.4,9.6
79,160,371,171,100,75,44,24,40,24,0,0,24,44,36,20,28,12,0,0,20,12,32,16,40,24,44,28,44,28,0,3.8,-1.3,0.9,2.3,6.5,0,2.4,-1,1.4,1.7,3.6,-1.7,0,0,0.7,-0.8,-2.7,-3,1.1,0,-1.1,-1.9,-4.7,0,2.6,-0.8,-0.1,1.6,3,0,0.8,0,1,0.5,1.1,-5.8,0,0,-0.6,-0.9,-19.7,0,1.2,-11.2,-0.3,2.5,-27.9,0,3.3,-12.6,0.2,4.9,-20,0,5.4,-8.2,1,3.1,-5.6,0,5.4,-4.7,1,2.7,3.4,0,4,-2.1,0.9,2.3,5.9
72,169,328,135,85,103,48,28,36,20,0,0,32,52,48,28,20,8,28,20,40,24,40,24,40,24,40,24,40,20,0,8.9,-0.9,0.9,1,20.6,0,4.6,-1.4,0.7,0.3,5.7,-5.2,0,0,0.2,-0.9,-19.7,-6,1.3,0,-0.8,-1,-11.2,0,6,-0.9,0.8,1.1,13.2,0,0.9,-1.4,0.6,0.2,-2.4,0,0.9,-4.3,-0.4,0.2,-9.9,0,6.1,-5.7,-0.2,1.9,-0.3,0,10.4,-6.5,-0.4,2.2,7.8,0,9.3,-5.2,0.6,1.1,7.2,0,6.9,-2.9,0.5,0.7,7.5,0,4.2,-1.2,0.5,0.7,6
97,133,338,235,96,93,32,16,40,28,44,28,60,52,48,48,44,28,24,64,32,80,36,24,44,24,40,24,44,28,0,2,-2,0.4,1.5,-1.2,0,4.8,-4.6,1.9,2.6,-4.2,0,3.4,-2.7,1.5,1,-0.1,-3.3,3.3,0,-1.1,-2,3.3,-1.4,1.2,0,-0.6,0.3,0.6,0,4.1,-3.6,1.6,1.7,-1,0,0.6,-1.7,-1.1,-1.1,7.7,0,2.5,-5.5,0.3,2,5.1,0,6.1,-11.4,0.4,8.8,-21,0,8.7,-8.4,0.6,6.9,-6.1,0,7.7,-5.2,1,3.8,0.9,0,5.7,-3.3,0.8,2.4,2.6
87,292,406,192,175,64,36,36,36,36,24,40,20,64,40,24,36,36,48,28,52,36,52,32,52,32,52,32,48,28,-0.7,5.1,-1.3,0.9,1.2,5.8,-1.1,5.4,-1.8,0.8,2.4,5,-0.8,0.7,-0.7,-0.3,1.1,-1.2,0,0.8,-5.2,-0.8,-1.8,-5.8,0,2.4,-0.6,0.5,-0.1,4.2,-0.9,2.9,-1.2,0.3,1.7,2.4,0,2.8,-2.4,-0.1,1.2,1,0,7.3,-3.2,-0.2,3.1,12.5,0,14.3,-4.8,-0.3,4.3,29.5,0,16.2,-4.4,-0.2,3.8,34.2,0,13.6,-3.2,-0.2,2.9,29.6,0,9.4,-1.9,-0.3,2.2,19.5
102,143,364,168,82,79,44,40,40,40,32,16,20,72,96,16,40,40,36,24,40,24,48,24,48,32,40,40,44,44,-0.7,6.9,-1.1,0.8,1.7,11.7,-0.8,11.6,-3.3,1.1,1.5,13.9,0,5.1,-2.4,0.4,-0.5,1.9,0,0.7,-9.1,-0.9,-1.4,-14.1,0,2.1,0,0.5,0.9,10,-0.4,8.2,-2.9,0.7,0.5,8.5,0,3.9,-7.9,0.4,-1.7,1.6,0,6.3,-8.3,0.6,0.3,8.4,0,4.2,-2.6,0.8,2.8,4.3,0,13.4,-3.9,0.9,3.3,24.3,-1.1,15,-3.2,0.7,2.6,20.6,-1.3,13.1,-2.5,0.6,2.1,21.3
85,145,397,176,88,73,60,40,48,28,28,16,16,8,72,36,52,32,28,16,40,24,48,32,44,28,48,28,52,24,-0.8,7.4,0,0.8,2.7,21.4,0,6.1,-1.2,1.2,3.2,12.7,0,1,-1.3,0.5,0.6,-3,0,0.4,-7.4,-0.7,-2.5,-27.8,-0.6,2.5,0,-0.2,-0.1,8.4,0,4.8,-1.3,0.7,2.3,10.4,0,1.8,-8.2,0.1,-1.7,-23.7,0,2.8,-4.1,0.3,1.3,-3.4,0,6.5,-5.8,0.3,3.9,5.2,0,9.8,-5.4,0.1,4,10.7,0,10.3,-1.9,0.2,3,21.3,0,8.5,0,0.2,2.6,22.1
84,188,450,193,89,66,56,32,44,28,20,28,44,60,52,16,40,20,0,0,12,4,28,16,44,28,48,32,52,36,0,3.5,-1,0.9,1.9,8,0,5.3,-2.1,0.9,1.1,6.6,-0.5,1.8,-1.8,-0.6,-1,-3.3,-4.1,1.5,0,-0.5,-1.1,-5.7,0,1,-0.6,0.5,1.3,1.6,0,3.6,-0.9,0.3,-0.6,5.3,-6,0,0,0.3,-1.3,-22.8,0,0.4,-8.3,-0.3,0.4,-29.6,0,2.3,-9.7,-0.5,0.9,-29.7,0,5.1,-9.4,0.3,0.6,-17,0,8.2,-7.1,0.4,0.4,-3.1,0,7.6,-3.7,0.4,0.7,8.6
78,118,241,152,68,72,72,32,56,32,24,40,0,0,64,24,44,24,24,12,48,32,48,32,48,32,48,28,48,28,0,10.1,0,1,-1,36.3,0,10.9,0,1,-0.9,30.5,-1.9,2.2,-0.6,0.4,0.4,-0.8,-10.1,0,0,-1,0.8,-28.2,0,5.1,0,0.5,-0.7,16.3,0,6.4,0,0.7,-0.4,14,0,1.1,-6.2,0.4,-0.2,-17.3,0,7.4,-8.8,0.3,1,-1.6,0,14.8,-10.3,0.6,1.1,12.9,0,15.2,-6.6,0.7,-0.7,21.9,0,14.2,-3.4,0.6,-0.6,27.2,0,11.8,0,0.5,-0.5,28.3
79,145,377,172,83,73,48,28,32,36,24,56,16,56,48,32,32,40,28,16,40,24,48,32,48,32,44,24,36,32,0,8,-1.7,0.6,1.7,16.5,-2.2,5.4,-1,1.7,0.7,4.6,-4.9,1.6,0,1.1,-1.5,-9.8,0,0.5,-6.5,-1.2,-1,-8.1,0,5.7,-1.7,-0.3,1.6,10.6,-3.1,2.5,0,1.4,0.4,-0.9,0,2.6,-6.9,-1,-1,-12.9,0,10.4,-8.1,-0.4,2.2,4.6,0,16,-8.6,0.5,1.7,21.2,0,14.7,-4.9,0.6,1.2,24.5,0,9.8,-2.1,0.7,0.9,17.3,-0.4,6.5,-0.9,0.8,0.6,9.8
91,171,387,117,93,63,44,36,68,44,72,52,24,16,16,8,72,48,32,20,36,24,88,32,92,52,72,48,76,44,-0.8,6.4,0,0.7,0.5,13.2,-1.3,15.6,0,1.2,1,51.5,-0.5,10.2,0,0.5,0.5,36.1,0,1.1,-10.9,-0.9,-0.7,-37.9,0,0.4,-3.7,0.2,-0.1,-10.8,-0.9,12.7,0,0.7,0.7,44.7,0,4.3,-14.1,-0.5,0.6,-32.6,0,6.2,-14.6,0.3,1.8,-23.9,0,6.9,0,0.6,2.2,30.3,-1.6,22.9,0,0.9,0.5,103.4,-2,16.7,0,0.7,1,57.3,-1.7,13,0,0.7,0.9,47.4
98,176,343,132,144,101,0,0,32,44,36,44,52,44,20,68,36,40,24,12,28,16,32,20,32,20,32,20,36,40,-2.7,0,0,0.8,0.4,-9.7,-0.9,8.5,-6.3,1.5,1.4,-3.7,-1,9.7,-5.4,0.8,1,3.3,-4,3.5,0,-1.1,-0.8,1.9,0,0.6,-5.6,0.2,-0.3,-5.6,-0.8,9.2,-5.7,1.1,1.1,2.1,0,0.7,-4,-0.9,-1,-6.4,0,2.5,-13.2,0.5,-0.2,-28.1,0,4.8,-27.1,1.1,1,-73.7,0,7.6,-28.4,1.3,1,-73.1,0,12.3,-11.4,1.3,1.5,-14.6,-1.9,10.2,-2.8,1.1,1.3,9.4
86,195,414,182,80,65,56,28,72,44,64,44,0,0,64,40,64,40,20,12,28,16,36,24,60,36,52,28,60,28,0,8.8,0,0.6,2.5,24.6,0,11.4,-0.5,0.8,4,40.6,0,2.5,-0.4,0.6,1.5,7.6,-10.1,0,0,-0.6,-3.1,-32.3,-0.4,3.3,0,-0.1,0.5,10.1,0,6.7,-0.6,0.8,2.7,20.8,0,0.7,-11.6,0,-1.7,-34.1,0,2,-11.9,0,1.4,-35.2,0,4,-14.7,0,6.9,-31,0,30.8,-4.9,-0.1,9.3,87.5,0,27.1,-1.7,-0.1,5.5,67.4,0,18.8,0,0.2,3.7,56.4
72,142,371,137,91,57,40,36,76,28,20,56,0,0,32,28,76,36,24,12,44,28,56,32,56,32,56,28,72,28,-0.5,6.3,-1,0.3,1.3,10.6,0,6.8,0,0.8,1.2,25.8,0,0.4,-0.4,0.4,-0.2,8.1,-6.4,0,0,-0.5,-1.1,-16.6,-0.4,3.1,-1.7,0,0.7,2.4,0,4.2,0,0.6,0.5,15.9,0,1.4,-5.2,0,-0.3,-11.9,0,3.9,-4,0,3.1,1.3,0,12.4,-2,0,3,32.3,0,12.7,-0.7,0.5,1.6,34.8,0,10.2,0,0.5,1.3,28.5,0,7.1,0,0.4,0.9,25.5
97,147,370,170,93,89,52,32,56,76,92,64,0,0,52,32,60,56,0,0,40,24,44,28,48,32,48,32,44,28,0,11.2,-2.4,1,0.5,18.6,-1.8,2.9,-0.7,0.9,0.4,2.4,-10.8,5,0,0.2,0.1,-7.2,-6.3,0,0,-1.1,-0.4,-26.4,0,10.3,-3.5,0.9,0.2,17.6,-4.8,4.2,0,0.7,0.3,2.1,-8,0,0,-1.2,1.6,-33.6,0,7.1,-13.7,-0.7,3,-18.6,0,14,-19.3,0.3,2.7,-15.5,0,19.6,-14.7,1.1,0.6,5.9,0,19,-9.2,1.1,0.4,19.9,0,10.5,-2.1,0.8,-0.7,17.3
82,0,415,108,0,63,72,28,48,32,32,20,36,68,60,20,56,40,32,16,0,0,0,0,36,20,64,40,68,36,0,3.7,0,0,0.3,13.3,0,3.3,-1.9,0,0.5,4.1,0,0.6,-3.2,0,0.3,-7.4,-3.8,0.8,0,-0.3,-0.4,-10,0,2.9,0,0.2,-0.4,8.7,0,3.3,-3,0.2,0.5,2.6,0,0.8,-3.8,-1.1,-0.7,-6.4,-7.5,0,0,0.3,1.8,-22.5,-23.3,0,0,0.6,7.2,-93.2,0,2.7,-8.9,0.6,7.4,-11.2,0,24.5,0,0.8,1.8,78.4,0,13.1,0,-0.7,0.4,44.5
78,132,368,192,85,72,44,24,60,28,48,44,0,0,40,24,68,20,24,12,32,20,48,24,48,32,44,24,48,36,0,8,-1.3,1,2.6,15.3,0,6.2,0,1.1,2.2,18.6,-1.9,2,0,0.4,-0.4,1.4,-7.2,0,0,-0.9,-2.2,-18.7,0,4.3,-1.8,-0.1,1.3,5.4,0,3.3,0,0.7,0.8,11.2,0,1.8,-7.1,-0.7,-1.8,-9.9,0,3.2,-5.8,-0.1,1.5,-11.1,0,4,-5.5,0.5,5.4,-1.4,0,12.6,-3.4,0.8,5.1,23.4,0,9.1,-0.9,0.7,3.4,18.4,-0.5,9.2,-0.6,0.7,2.8,20.8
97,0,353,141,0,86,44,28,40,56,40,52,28,16,36,20,44,56,40,24,40,24,36,24,44,32,44,44,48,48,0,3.4,-3.6,0.5,0.3,-1.2,-2.2,18.6,0,-0.9,-1.5,33.3,-4.3,21.1,0,-1.4,-0.9,34.5,0,0.5,-8.1,0.3,1,-18.7,0,3.3,-12.1,0.6,0.4,-15.8,-3.3,19.8,0,-1,-1.2,37.6,0,1.9,-6.3,-1.2,2.8,-16.3,0,6.3,-12.1,-1.1,2.8,-14,0,17.2,-41.4,0.8,11.2,-60.1,0,18.9,-42.9,1.9,10.3,-50,-0.8,19.9,-6.5,-0.1,1.2,29.9,-1.1,12.9,0,-0.3,-1.7,29.6
94,160,360,203,89,68,56,32,76,32,40,52,0,0,52,28,68,28,20,12,52,36,52,32,52,32,56,32,60,32,0,8.2,-0.6,0.7,-1,22.2,0,6.3,0,0.8,0.5,23.9,-2.6,1.9,0,0.2,0.8,-1.4,-7.1,0,0,-0.7,0.7,-21.3,0,5.3,-1,0.6,-0.9,12.3,0,3,0,0.4,0.4,10.2,0,0.6,-11,-0.6,4.1,-34.6,0,15.1,-16.7,-0.6,2.9,-4.2,0,28.4,-13.7,-0.3,1,41,0,18.3,-5.8,0.3,0.4,34.8,0,13.2,-2.3,0.3,0.2,32.3,0,8.8,0,0.4,0.3,26.4
82,294,366,148,178,68,56,20,48,32,28,16,0,0,60,44,40,28,0,0,36,20,40,24,44,28,48,28,52,32,0,7,0,0.6,1.8,19.6,0,5.1,-2.7,0.7,1.3,6.3,0,1.4,-5.8,0.4,-0.6,-13.1,-5.5,0,0,-0.6,-1.5,-13.2,-0.7,5.5,0,0.5,1,15.8,0,2.1,-3.8,0.4,0.5,-5.6,-5.7,0,0,-0.1,-0.1,-17.1,0,4.6,-6,-0.2,3.5,-2.6,0,10.2,-6.7,-0.2,4.2,7,0,7.1,-6.1,-0.6,3.3,2.2,0,10.3,-2.3,-0.4,1.7,20.6,0,9.5,0,-0.3,1.3,24.7
78,203,369,167,102,85,36,36,40,40,32,32,24,12,32,36,40,40,32,20,32,20,36,20,36,40,32,40,36,36,-1,5.4,-1,0.9,1.4,7.9,-1,5.7,0,1,1.6,10.2,-0.6,1.7,0,0.5,0.5,2,0,1.1,-5.3,-1,-1.4,-7.8,-0.5,2.7,-1.1,0.5,0.6,2.7,-0.7,3.1,0,0.8,1,5.4,0,1.4,-6.6,-1.1,1,-13.6,0,1.8,-5.8,0.2,3,-7.6,0,6.8,-7.2,0.7,4.3,2.2,-0.7,13.1,-5.8,0.9,3.8,14.7,-0.9,11.7,-2.7,0.9,2.9,12.3,-0.9,9.6,-0.8,0.9,2.1,14.9
79,170,364,167,97,77,44,24,48,28,56,28,16,48,32,16,72,20,24,12,32,20,40,28,40,24,40,24,40,20,0,5.1,-1.1,1,1,9.5,0,7,-0.8,1.4,2.3,16.4,-0.5,2.3,0,0.5,1.3,6,-6.1,1.2,0,-1,-1.5,-12.5,0,2.1,-1.4,-0.2,-0.1,0.3,0,5,0,1,1.5,18,0,1.1,-5.6,-0.8,-0.2,-14.3,0,3.4,-9.8,-0.3,2.4,-16.1,0,6.4,-10.3,0.2,3.3,-7.8,0,10,-8.1,0.5,2.2,5.5,0,9.3,-3.7,0.5,1.8,12.7,0,8,-1.6,0.5,1.3,14.4
87,159,335,167,65,78,44,28,44,32,68,40,32,48,36,24,52,36,24,16,28,16,36,24,48,32,40,24,32,32,0,6.4,-2.8,0.4,3.4,9.6,-0.7,14.9,-0.4,0.1,5.4,31.9,-1.5,10.2,0,-0.3,1.9,33.1,-9,1.4,0,-0.5,-3.9,-15.8,0,2.1,-5.1,0.3,1.1,-7.5,-1.1,10.2,0,0.1,2.8,25.4,0,3.6,-15.3,0.1,-4.1,-38.5,0,6.8,-21,0.3,-0.9,-45.1,0,7.3,-22.6,0.4,2.3,-41.1,0,13,-12,0.5,6.3,9.6,0,17,-6.8,0.4,6.9,24.5,-0.4,12.4,-3.1,0.3,5.1,15.2
93,129,390,137,60,57,40,32,52,28,60,36,24,56,28,12,56,28,32,20,32,20,36,24,48,32,40,36,40,40,-0.4,6.4,-0.8,0.5,2,11.3,0,10.3,-1.4,0.4,1.8,24.8,0,4.5,-0.8,-0.3,-0.5,12.6,-8.3,0.7,0,-0.6,-1.7,-19.1,0,1.2,-1.5,0.3,1.2,-0.5,0,7.6,-0.9,0.3,0.6,20.5,0,4.1,-10,0.5,1.9,-21.5,0,6.1,-16.8,0.7,5.5,-37.3,0,7.2,-18.4,0.7,6.6,-34.9,0,12.5,-8.9,0.4,2.1,6.9,-0.5,14,-3.6,0.3,1.7,19,-0.6,11.9,-1.3,0.3,1.7,20.4
75,163,418,155,90,65,36,32,36,20,32,16,16,40,36,36,36,24,28,16,36,20,40,24,36,36,36,36,36,32,-0.4,4.5,-0.5,0.9,2.2,7.5,0,4.8,-2.2,1.5,2.2,6.4,0,1.4,-2.4,0.7,-0.5,-3,-4.5,1.4,0,-1.1,-2.2,-7,-0.5,2.6,0,0.3,1.2,4,0,2.8,-2.1,0.8,1,0.8,0,2.7,-4.8,-0.8,-1.2,-7.8,0,4.1,-7.2,-0.3,2.9,-8.5,0,7.6,-5.1,0.9,5.6,9.1,-0.4,10.1,-3.2,0.5,2.5,14.6,-0.5,7.9,-2.2,0.6,2.4,11.6,-0.4,5.3,-1.3,0.6,1.9,8.2
96,153,340,152,90,86,36,40,56,32,32,20,44,52,36,40,40,24,28,16,40,24,60,40,52,32,48,28,44,24,-0.7,8.6,-1.6,0.7,2.5,11.4,0,4.2,-2.6,0.8,2,6,0,1.6,-4.5,-0.3,-0.4,-16.4,-6.4,2,0,-0.6,-2.2,-9.6,-1.1,6.5,-0.6,0.3,1.4,11.1,0,1.3,-2.2,0.3,0.7,-4.8,0,2.3,-8.3,0.1,-2.8,-25,0,3.2,-4.6,0.3,2.7,-6.4,0,8.2,-4.1,0.5,3.5,17.3,0,3.3,-2.5,0.5,1.4,1.5,0,3.5,-2,0.5,1.7,2.8,0,3.1,-1.8,0.6,1.6,1.8
88,150,353,156,96,93,36,36,32,36,0,0,16,60,40,20,24,24,28,20,32,20,40,20,40,24,40,24,40,20,-0.6,7.5,-1.7,0.3,1.9,9.1,-0.6,5.2,-2.3,0.6,1.3,2.2,-2.2,0,0,0.4,-0.5,-10.1,0,0.6,-6.3,-0.5,-1.6,-6.5,0,4.9,-0.7,-0.2,1.2,10.5,-0.6,1.5,-1.9,0.6,0.5,-3.1,0,2.1,-8.1,0.1,-0.1,-21.4,0,3.4,-9,-0.3,3.8,-18,0,2.7,-6.6,0.2,3.4,-11.7,0,3.8,-3.2,0.3,1.3,0,0,4.9,-2.6,0.4,1.2,4.1,0,5.3,-1.6,0.7,1.2,7.4
90,157,382,168,114,70,48,28,56,32,40,32,28,60,36,20,56,32,24,12,44,32,48,36,52,32,48,28,48,28,0,8,-1.5,0.4,0.5,16.8,0,9.9,-1.1,0.9,1.4,26.4,-0.7,4.7,0,0.5,1,8.7,-8.5,1.2,0,-0.7,-0.8,-20.5,0,3.6,-2,-0.1,-0.3,2.4,0,6.8,0,0.7,1.1,19,0,0.8,-5.8,0,1.5,-15.3,0,5,-8.1,0,2.6,-6.8,0,12,-8.5,0,2.8,8.4,0,12.4,-4.8,0.6,1.8,20.7,0,12.2,-3.2,0.7,1.5,21.6,0,10.9,-1.8,0.5,1.2,22.2
74,159,380,154,96,81,52,28,52,32,32,20,0,0,40,36,44,28,12,4,36,24,48,32,48,32,52,32,56,32,0,10.6,0,0.6,0.9,27.5,0,8.6,0,1,1.7,22.3,0,2.8,-5.7,0.6,0.8,-8.1,-8.9,0,0,-0.8,-1.3,-23.1,-1.1,7.6,0,-0.2,0.2,14.1,0,4.8,-2.3,0.7,1.3,5.9,0,0.4,-9.3,0.3,1.1,-22.1,0,3.2,-3.6,0.1,3.4,0.7,0,12.1,-3.4,0.2,4.3,23.6,0,12.5,-3.4,0.5,3.3,23.9,0,12.6,-1.6,0.6,2.4,30.2,0,10.3,0,0.7,1.8,28.8
85,142,339,157,89,80,44,20,40,24,16,24,36,52,56,16,32,16,0,0,28,20,32,20,36,24,40,24,40,24,0,3.4,0,0.5,0.8,7.4,0,3.5,-0.7,1.1,1,6.2,-0.6,1.1,-0.5,0.8,0.2,-0.3,-3.3,0.9,0,-0.7,-0.8,-5,0,1.7,0,-0.2,0.4,4.7,0,1.8,-1.4,0.7,0.7,0.3,-3.8,0,0,0,0.4,-9.8,0,1.6,-8.1,0,1.7,-15.6,0,5,-12.3,0,2.5,-19,0,9.2,-13.1,0.4,1.8,-12.3,0,10.5,-9.1,0.4,1,-4.4,0,9.1,-4,0.3,0.9,7.8
90,180,386,174,100,71,52,40,44,32,24,16,28,44,60,44,24,12,0,0,20,12,32,20,44,32,44,32,44,32,-0.4,7.4,0,0.9,1.4,18.8,0,1.5,-5.4,1.2,2.1,-6.4,0,0.9,-8.5,0.7,1.4,-24.5,-4.1,2.1,0,-1,-1.5,-4.4,-0.6,7.4,0,-0.1,0.6,21.6,0,0.5,-6.8,0.6,1.6,-18.4,-8.3,0,0,-0.5,1.7,-19.9,0,0.9,-7.4,-0.1,5.4,-16.8,0,3,-11.6,0.3,6.1,-18.4,0,5.2,-12.7,0.9,4,-14,0,6,-8.8,0.9,1.9,-2.6,0,4.2,-5.8,0.8,1.3,-1.2
71,158,325,135,103,92,76,20,40,24,36,20,40,48,36,40,36,20,0,0,0,0,32,20,44,32,48,32,48,24,0,2,0,-0.5,0.9,7.6,0,5.1,-3.2,0.9,2.3,5.8,0,3.2,-3.6,1,1.3,0,-3.4,1.7,0,-0.3,-1.6,-3.4,-0.7,1.9,0,-0.6,-0.2,2.5,0,4.1,-3.5,1,1.8,1.7,-3.3,0,0,-0.8,-0.9,-7.9,-1.8,0,0,-0.6,0.6,-4.3,0,1.6,-6.8,0.2,4.3,-9.7,0,12.3,-10.2,0.6,7.9,8.7,0,12.7,-5.9,0.5,5.3,16.3,0,6.8,0,0.4,2.5,16.3
75,162,339,141,96,81,36,20,40,24,28,28,40,48,24,12,32,16,0,0,32,20,44,28,44,28,48,28,48,32,0,2.2,-0.9,0.4,0.6,2,0,4.8,-1.8,1,1.1,6,-0.4,3.1,-1.1,0.7,0.6,2.1,-3.3,1.3,0,-0.6,-0.8,-4,0,0.9,-1,-0.3,0.2,-0.2,0,3.9,-1.3,0.8,0.9,3.6,-5.2,0,0,-0.6,-0.9,-13.5,0,1.4,-8.5,0.1,2,-16.5,0,7.1,-4.8,0.3,2.7,7,0,7.7,-3.4,0.3,2.2,9.5,0,5.3,-2,0.4,1.4,8.7,0,5,-1.3,0.4,1.2,9.4
77,141,378,206,84,73,40,24,48,36,44,24,16,64,32,20,52,24,24,12,44,28,60,40,48,32,48,28,48,36,0,6.7,-1.1,0.8,2.2,11.7,-0.5,9.3,-0.5,0.6,2.5,21.4,0,4.4,-0.4,0.1,0.3,9.3,0,0.4,-8,-0.7,-2.2,-16.7,0,2.5,-1.9,0.5,0.9,1.4,0,6.4,0,0.3,1.3,16.6,0,1.3,-7.8,0.1,-1.8,-20.3,0,4.1,-5.1,0.7,2.7,-0.1,0,10.8,-4.2,0.8,4.7,27.4,0,13.5,-3.5,0.9,4.2,27.5,0,10.4,-1.5,0.5,2.8,22.2,-0.4,9.7,-0.7,0.5,2.6,22.2
87,166,372,150,96,70,44,44,40,20,40,28,20,12,56,44,36,24,28,20,0,0,32,36,32,36,32,36,32,40,-1.3,7.4,0,1.2,0.7,14.7,0,4.7,-1.6,1.2,1.2,8.8,0,1.7,-6.2,0.4,0.7,-9,0,0.7,-5.2,-1.2,-0.9,-16.9,-1.2,6.4,0,0.6,-0.3,16.3,0,2.5,-3.6,0.7,0.9,-1.2,0,0.9,-6.9,0.2,0.7,-18.1,-5.2,0,0,-0.2,2.9,-15.6,-0.7,7.8,-6.7,0.2,3.6,1,-0.8,8.5,-7,0.5,2.9,0.2,-0.9,7.6,-5.4,0.6,2.4,2.6,-0.8,6.3,-2.9,0.7,1.4,5.7
95,197,340,139,132,80,60,36,48,44,40,48,36,56,88,48,44,44,24,8,52,40,52,28,48,48,48,52,52,48,0,5,0,0.7,0.9,15,-0.9,8.3,-2.3,1.3,1.8,14.4,-1.2,3.3,-1.7,0.8,0.9,2.7,-6.6,1.5,0,-0.9,-1.3,-13.1,0,0.8,0,-0.2,-0.1,3.5,-1,5.8,-1.9,1,1.3,8.5,0,0.4,-6.7,-0.7,0.7,-15.6,0,1.7,-1.7,-0.4,2.3,2.7,0,8.8,-1.8,-0.4,4.5,21,-0.9,15.9,-3.6,0.7,2.8,29.9,-0.9,15.9,-3.4,0.8,2.2,30.3,-0.7,12,-2.3,0.8,1.7,26.4
74,165,386,150,97,72,64,44,60,24,0,0,0,0,40,20,56,20,0,0,24,16,32,20,40,24,48,32,48,28,0,3.9,-0.4,0.7,0.7,12.2,0,4.5,0,0.8,1.2,13.5,-0.5,0,0,0.3,0.6,-0.8,-3.8,0,0,-0.5,-1,-11.4,0,1.8,0,-0.1,0.2,3.6,0,1.9,0,0.4,0.8,5.3,-7,0,0,-0.6,0.6,-16.8,0,1,-7.6,0.4,2.4,-15.5,0,3,-7.3,0.7,3.2,-11.2,0,5,-4.2,0.8,2.2,2.5,0,6.9,-2.3,0.6,1.5,12.9,0,5.3,-0.5,0.5,1,12
99,163,393,150,113,76,68,56,64,48,32,20,0,0,64,60,56,48,40,28,48,28,60,40,56,40,56,40,64,44,-1,12.9,0,1,0.8,42.6,0,5.5,-1.7,1.3,1.1,16.8,0,1.9,-11.8,0.7,0.3,-32.4,-8.2,0,0,-0.9,-1.3,-37.7,-1.2,10.3,0,0.4,0.5,31.5,0,1.9,-5.1,0.8,1,-2.8,0,2.5,-12.4,-0.5,0.9,-27.2,0,5,-6,0.2,3.7,0,0,8.4,-7.2,0.4,5.2,13.7,0,8.2,-10,0.7,2.3,-3.1,0,8.5,-5.3,0.7,0.6,11.1,0,8.7,-1.2,0.6,0.3,25.4
89,130,347,175,70,63,36,20,52,24,52,24,0,0,0,0,60,28,28,16,32,20,36,24,44,28,40,28,36,20,0,2.6,-1.6,0.3,0.8,1.8,0,9.5,0,0.5,3.4,24.7,0,7.9,0,0.3,2.6,20.5,-6.1,0,0,0,-2.1,-14.6,-3.8,0,0,0,-0.9,-9.8,0,8.9,0,0,3,26.7,0,1.9,-6.7,-0.5,-1,-13.4,0,3.3,-9.2,0.1,1.6,-13.2,0,6.3,-13.9,0.5,4.4,-19.2,0,8.1,-13.2,0.6,5.8,-8.6,0,9.8,-6.3,0.4,3.1,7,0,7,-2.7,0.4,2,5.6
83,146,418,134,83,61,48,28,44,24,48,28,20,52,44,20,40,20,24,12,36,24,48,28,52,36,52,32,48,28,0,6.5,-1.1,1.1,0.7,14.5,0,10.2,-1,1.4,0.8,21.6,-0.9,3.8,0,0.4,0.4,8.4,-8.4,1,0,-1.1,-0.8,-19.1,0,2.7,0,0.8,0.5,5.9,0,6.9,-0.4,0.8,0.6,13.6,0,0.9,-6.8,-0.5,0.5,-15.3,0,3,-11.1,0.4,1.5,-19,0,7.1,-7.6,1.1,2.4,4.9,0,14.8,-5.7,1.2,1.3,27,0,13.7,-2.7,0.9,0.4,30.8,0,11.9,0,1,0.6,28.5
78,155,350,147,104,81,68,28,48,24,40,16,0,0,0,0,48,24,16,8,28,16,44,32,44,28,48,28,76,24,0,3,0,0.4,1.3,10.2,0,9,-0.6,1.3,1.3,21.2,0,5.9,0,0.9,-0.2,11.8,-6,0,0,-0.7,-1.2,-14.4,-1.7,0,0,-0.3,0.6,-3.7,0,7.7,0,1,0.5,18.4,0,0.4,-6.5,0,-0.6,-19.2,0,2.1,-8,0,2.6,-14.7,0,6.4,-6.1,0,4.7,5.5,0,12.3,-3,0.6,2.7,21.6,0,9.5,-0.6,0.7,1.8,21.9,0,7.3,0,0.7,1.2,27.7
100,259,380,179,95,63,36,32,84,48,68,56,0,0,32,20,48,36,36,24,44,28,52,36,44,44,40,44,40,44,-0.4,4.5,-3.5,0.5,2,1.5,-1.3,8.5,0,0.7,2.4,34.2,-1.4,8,0,0.2,0.4,24.7,-6.4,0,0,0.4,-3.5,-15.3,0,2.8,-4.9,-0.6,2,-4.4,-1.1,7.6,0,0.7,1.7,17.1,0,2.5,-5.7,-0.3,-0.2,-16,0,6.6,-12,-0.7,4.5,-19.1,0,9.6,-14.3,-0.7,6.3,-9.4,-0.5,15.9,-10.4,-0.1,5,5.4,-1.2,15.6,-6.5,-0.1,4.4,11.8,-1.2,11,-2.3,-0.1,3.1,14.7
80,134,362,156,58,70,40,20,52,28,52,24,0,0,28,12,52,28,20,8,32,20,36,24,44,28,44,28,44,24,0,3.6,-0.6,0.7,1.9,6.5,0,6.1,0,1.8,2.7,15.8,0,2.5,0,1.3,0.8,6.5,-4.8,0,0,-1.2,-2.2,-11.5,0,0.8,-0.7,-0.5,0.6,0.3,0,4.3,0,1.5,1.6,11.1,0,0.6,-6.3,-0.8,-1.7,-13.2,0,2.3,-6.9,-0.4,0.3,-5.6,0,7.1,-10.7,0.1,4.1,-6.5,0,11.2,-7.4,0.4,4.6,8.4,0,8.6,-3.3,0.5,3.3,11.7,0,7.1,-1.4,0.6,2.9,12.8
87,146,352,160,89,58,36,20,88,24,92,32,0,0,0,0,92,28,20,12,28,16,40,24,48,32,44,24,68,24,0,3.9,-1.4,0.5,1.2,3.7,0,11,0,1.2,2.2,48.4,0,7.2,0,1,1.2,33.1,-7,0,0,-0.7,-1.6,-29.4,-3,0,0,-0.3,0.5,-12.6,0,9.3,0,1.1,1.4,42.7,0,1.2,-7.7,-0.3,1,-24.9,0,2.6,-11.5,-0.6,4,-30.9,0,5.2,-14.5,-0.7,7,-27.3,0,19.3,-8.4,0.9,4,26.2,0,16.6,-2.5,0.9,2.2,31,0,11.3,0,0.8,1.3,38.4
79,152,398,172,91,62,52,28,72,28,48,40,0,0,36,20,60,40,24,16,36,24,40,24,48,32,48,28,44,36,0,6.6,-0.5,1.1,1.7,16.8,0,11.8,0,1.3,2.9,42.4,-1.9,8,0,-0.5,1.2,16.6,-8.5,0,0,-1.1,-2.3,-32.3,0,3.1,-3.1,0.7,0.4,1.2,-0.6,9.5,0,0.8,2.1,27.9,0,1.5,-10.3,0.3,-1.1,-24.9,0,5.1,-13.6,0.9,3.3,-18.1,0,7.6,-12.4,1.3,6.2,-9.6,0,15.6,-6.1,1.2,5.5,25.2,0,18.2,-2.8,0.9,4.5,38.6,-0.4,13.9,0,0.8,3.2,30.3
102,126,357,135,83,68,44,28,48,24,36,44,20,80,36,20,36,44,40,24,44,28,44,32,44,28,52,28,52,24,0,3.6,-1.1,0.8,0.6,4,0,5.7,-2.9,1.3,2.4,6.7,-1.3,4.9,-1.9,0.7,1.8,3,0,0.5,-4.5,-1.2,-1.1,-5.5,0,2.6,-2,0.6,-1.1,-1.4,-0.7,4.8,-2.3,0.7,2,3.1,0,2.8,-7.8,0.3,1.2,-10,0,9.7,-14.5,-0.1,1.1,-10.6,0,19.6,-18.3,-0.2,0.8,-11.8,0,14.4,-8,0.6,0.8,4.4,0,7.2,-2.7,0.6,1.4,11.2,0,4.5,-1.5,0.6,1.2,8.1
80,156,364,134,116,80,84,40,44,44,44,40,12,92,36,48,48,28,32,16,36,20,40,24,48,32,44,24,40,44,-0.4,3.3,-0.7,0.2,0.9,12.8,-0.6,11.5,-1.1,1.1,1,22.5,-0.4,8.1,-1.7,1,0.1,11.8,-7.6,0.6,0,-0.6,-0.9,-31.6,-2.6,0.9,-0.4,-0.5,0.4,-4.5,0,10.2,-1,1,0.5,24.5,0,2.8,-8.8,-0.8,-1.1,-16.7,0,4,-8.8,-0.5,0.4,-10.4,0,4.2,-7.8,0.3,1.8,-7.2,0,9.7,-3.5,1.3,0.8,16.2,0,11.9,-2.7,1.4,0.9,21.3,-0.6,10.2,-1.6,1.3,1,17
85,167,355,151,127,85,64,24,40,24,24,36,0,0,28,16,44,24,28,12,40,28,44,32,40,28,40,24,44,24,0,4.2,0,0.8,1.3,13.4,0,5.3,-1.3,1.3,1.4,8,-1.2,3,-1.6,0.7,0.2,-0.2,-4.9,0,0,-1.1,-1.5,-11.7,0,2,-1.9,-0.3,0.6,1.8,0,5.2,-0.8,1.2,0.9,10.6,0,0.8,-5.1,-1,-0.4,-14.2,0,5.9,-12.5,0.1,4.7,-13.2,0,9.9,-15,0.1,5.2,-11.3,0,9.4,-9.8,0.6,2.5,-2.7,0,7.7,-4.5,0.5,1.8,6.4,0,6.4,-1.3,0.6,1.5,12
81,135,337,152,79,75,48,28,80,28,68,36,0,0,28,16,76,24,24,16,36,28,52,36,48,32,52,32,80,28,0,5,-1.3,0.7,1.5,9.2,0,11.8,0,1,1.8,47.2,-0.9,7.8,0,0.3,0.4,25.6,-8,0,0,-0.7,-1.9,-30.4,0,1.5,-2.9,0.1,0.7,-6.6,0,9.5,0,0.6,1.4,36.1,0,1,-11,-0.3,0.9,-27.4,0,5,-16.8,-0.7,6.5,-31.3,0,9.7,-8.4,-0.5,5.3,13.5,0,13.3,-3.6,0.7,2.7,27.6,0,13.4,-1.1,0.4,2.1,33.1,0,11.6,0,0.5,1.8,46.4
85,165,237,150,106,138,28,16,32,20,24,52,32,48,20,32,28,52,32,48,32,36,40,24,40,24,44,28,40,24,0,12.2,-11.7,1.5,1.1,0.7,0,3.9,-0.7,1.7,1.7,8.3,0,2.7,-12.3,-0.1,-0.8,8.7,-6,4.2,0,-1.6,-1,-5.3,-1.4,12.3,-13.3,0.8,-0.7,-5.2,0,3,-6.2,1,1,9.2,-2.8,7.5,0,-1.9,-0.9,7,-0.4,6.4,-1.6,0.8,-0.5,7.3,0,19.1,-13.5,2,1.2,19.3,0,20.2,-11.6,1.4,1.7,21.9,0,17.2,-7.6,1.2,0.7,13.5,0,5,-4.6,1.3,0.7,2.7
95,157,383,163,92,60,84,36,52,36,32,16,28,52,80,56,48,36,36,24,44,32,52,36,44,28,44,24,44,20,-0.6,4.6,0,0.8,1.5,18.9,0,3.6,-2.6,0.5,2.3,3.6,0,1.5,-4.5,0.3,0.9,-13.8,-4.1,0.5,0,-0.5,-1.8,-9.1,-1,3.5,0,0.6,0.3,12.8,0,1.5,-3.5,0.4,1.4,-5.5,0,1.7,-5.4,0.1,-0.6,-11,0,3.3,-7.6,0.2,2.4,-9.5,0,8.2,-13.1,0.6,4.5,-10.1,0,10.5,-8.3,0.6,3.1,-1.8,0,8,-2.9,0.5,2.3,10.1,0,5.6,-0.5,0.4,1.7,11.1
82,195,362,156,102,76,48,24,84,28,60,36,0,0,32,20,72,24,32,20,40,24,52,36,52,36,48,28,76,24,0,6.1,-0.6,0.8,2.4,14.2,0,11.1,0,1.5,2.1,46.6,-0.6,6.2,0,0.6,-0.5,18,-8.4,0,0,-1.1,-2.2,-35.2,0,2.2,-2.2,-0.1,1.3,-0.9,0,8.5,0,1,0.9,30.6,0,2.5,-8.6,-0.4,-1.2,-18.3,0,4.9,-9.1,0.4,2.7,-8.4,0,7.5,-6.5,0.6,3.4,10.4,0,13.8,-4,0.8,2.6,31,0,13.5,-1.5,0.8,2.4,31.2,0,11.8,0,0.6,2.3,44.8
97,167,339,163,78,69,36,40,48,32,40,8,44,48,40,44,48,32,32,20,36,24,48,32,48,32,44,28,44,24,-0.6,4.6,-1.5,0.6,2,4,0,4.6,-2.6,1.1,3.2,5.8,0,0.9,-2.1,0.6,1.3,-3.6,-4.4,2.1,0,-0.8,-2.5,-4.2,-0.8,2.6,0,-0.1,0.4,4.3,0,2.3,-2.1,0.8,2.1,0.9,0,1.6,-4.5,0,-0.7,-5.9,0,2.4,-6.4,0,2.5,-13.6,0,4.9,-11.1,0,7.1,-14.9,0,13.6,-9.5,0,6.1,11.7,0,11.9,-5.1,0,4.3,10.8,0,7.8,-2.5,0,3,11.1
92,194,387,175,83,60,44,24,44,32,24,16,44,52,64,20,44,32,32,84,32,20,44,28,44,28,44,24,40,24,0,5.1,-2.2,0.5,2.7,6.8,0,6.1,-4.3,0.2,1.9,4,0,1,-2.3,-0.4,-0.8,-3.4,-5.6,3.1,0,-0.5,-2.2,-4.4,0,2.1,0,0.6,1.7,6.7,0,3.5,-3.3,0.1,0.4,0.5,0,1.7,-6.2,-0.6,-0.7,-6.3,0,3,-9.9,0.8,5,-20.9,0,7,-13,1,6.8,-15.8,0,11.8,-8.8,0.7,3.8,6.6,0,9.8,-4.1,0.5,3,12.5,0,6.9,-1.7,0.4,2.1,9.4
102,135,379,167,73,62,40,40,44,40,84,16,20,72,16,4,48,40,32,20,40,28,44,28,36,48,40,44,40,40,-0.9,5.8,-4.1,0.6,2,0.9,-1,12.6,-3,1.3,2.4,20.1,0,6.7,0,0.7,0.4,28.1,0,1,-9.2,-0.9,-2.2,-9,0,0.4,-2.7,-0.1,0.8,-9.4,-0.6,9.7,-1.2,0.9,1.4,20.2,0,4.6,-10.6,-0.6,1.6,-5.8,0,9.5,-17.7,0.3,6.3,-34.1,0,9.6,-14.9,1,9.5,-17.6,-2,24.6,-8.2,1,4.2,21.8,-2.3,17.2,-3.7,0.7,2.4,23.1,-1.8,11.8,-2,0.6,1.4,17.1
86,127,369,157,78,62,56,40,44,24,44,32,20,68,64,44,44,24,24,16,36,24,52,32,52,32,44,24,44,20,-0.6,7.7,0,0.8,2.4,20.9,0,8.9,-2.1,1.5,1.6,15.3,0,1.8,-2,0.7,-0.8,-1.3,0,0.4,-8.3,-1.2,-1.9,-14.2,-0.5,3.6,0,-0.1,1.6,10.9,0,5.4,-2.1,1,0.4,7.2,0,1.3,-8.8,-0.8,-1.5,-26.6,0,3.6,-8.9,0.1,3.5,-13.1,0,9.2,-6.8,0.5,4.4,10.3,0,14.5,-4.9,0.8,2.6,27,0,11,-2.3,0.8,1.9,19.2,0,8.6,-0.8,0.7,1.8,17.5
80,123,375,153,67,65,40,20,60,20,48,24,0,0,20,8,56,20,28,16,36,20,44,32,40,24,40,20,40,20,0,2.9,-0.4,0.7,1.2,5.6,0,4.3,0,0.6,1.7,12.9,0,1.7,0,0.1,0.6,4,-3.3,0,0,-0.5,-1.1,-6.6,0,0.5,-1.4,0.4,0.6,-2,0,2.8,0,0.3,0.5,7.8,0,1,-2.5,0,-1.5,-4.1,0,2.6,-5.2,0,0.7,-4.7,0,6.9,-8.2,0,1.7,-1.3,0,9.2,-6.3,0.5,1.7,3.3,0,7.1,-2.6,0.5,1.9,8.5,0,5.3,-0.7,0.4,1.9,9.2
85,137,323,143,87,93,40,20,44,20,44,36,44,48,32,16,40,36,32,20,40,24,52,36,44,28,40,40,36,40,0,4.8,-3,0.3,1.6,2.4,0,8.5,-2.5,1.5,1.4,13.7,-0.8,4.4,0,1.1,0.2,8.8,-7.5,2.4,0,-1,-1.5,-9.8,0,2.4,-2.2,-0.4,1.1,-0.1,-0.4,7,-1.5,1.5,0.7,11,0,1.9,-5.3,0.2,-1.3,-2.4,0,6.4,-7.5,0.4,-0.2,-6.7,0,8,-7.8,0.7,0.6,3.7,0,9.4,-4.2,0.9,1,11.4,-0.5,9,-2.6,1,1.3,12.3,-0.8,8.3,-1.8,0.9,1.3,10.4
85,176,385,172,104,74,40,24,44,20,72,20,36,52,36,24,44,20,20,12,28,16,48,32,48,32,40,20,36,16,0,4.9,-3.1,0.6,0.8,2.4,0,7,-1.5,1.5,2.4,12.4,0,4,0,0.8,1.6,14.4,-6.1,2.2,0,-1.1,-1.5,-9.5,0,2.2,-3,-0.1,-0.3,-3.3,0,4.5,-0.5,1.1,1.8,9,0,0.7,-6.1,-0.8,-1.3,-11.5,0,2,-6.7,0.7,-0.8,-14.6,0,5.3,-7.9,0.6,1.5,-4.6,0,10,-3.5,0.7,2,17.7,0,10.1,-2.6,0.7,2.2,15.6,0,7.5,-1.5,0.7,2,10.2
111,171,347,235,94,74,52,28,48,32,44,28,36,60,48,28,48,32,24,12,32,20,44,24,60,44,52,32,48,28,0,5.5,-1.7,0.7,2.1,12,0,7.4,-3.1,0.7,1.7,10.9,0,2,-2.4,0.4,-0.5,-2.3,-6.5,2.3,0,-0.5,-1.9,-12.8,0,2.2,0,-0.2,1.2,5.2,0,4.6,-2.6,0.4,0.7,4.8,0,1.2,-6.7,-0.7,-0.9,-15.5,0,4.3,-9.2,-0.8,3.7,-18.9,0,9.1,-13.4,-1,9.9,-12.1,0,18.1,-9.1,0.2,7,36.1,0,15.1,-5.1,0.1,4.1,27,0,9.9,-2.5,0.1,2.4,17.2
89,164,357,172,67,61,40,24,32,20,0,0,44,44,84,28,20,8,36,24,32,20,48,32,44,28,44,28,36,20,0,3.9,-0.9,0.6,2.4,6,0,2.5,-3.3,0.7,2.1,-3.9,-3.2,0,0,0.1,-0.3,-12.8,-3.1,2,0,-0.8,-2.1,-1.1,0,3,0,0.3,1.3,12.6,0,0.7,-3,0.5,0.9,-7.1,0,1.9,-2.8,0.2,0.1,-3.8,0,4.5,-8.6,0.3,3.7,-16.8,0,7,-10.3,0.5,5.4,-7.9,0,9.6,-8.8,0.7,3.9,0,0,7,-6,0.6,2.9,2.2,0,4.3,-3.3,0.6,2.2,-0.2
63,164,396,139,84,54,52,28,48,24,44,20,0,0,44,12,48,24,0,0,20,72,20,76,60,36,52,28,52,28,0,3.2,0,0.5,2,8.3,0,4.8,0,1,1.4,11.5,0,2,0,0.6,-0.6,4.4,-3.9,0,0,-0.6,-1.5,-9.3,0,1,0,-0.1,1.2,2.2,0,3.2,0,0.7,0.2,7.6,-7.3,0,0,-0.6,-1.5,-17.5,0,0.7,-7.3,0.1,0.8,-10.2,0,0.8,-5.9,0.3,3.3,-13.2,0,12.4,-0.5,0.6,1.8,36.8,0,12.1,-0.5,0.5,2.1,30.9,0,8.7,0,0.4,1.5,22.6
92,124,370,180,62,65,52,28,80,24,24,56,0,0,56,24,40,20,20,8,28,16,44,28,44,28,44,24,56,36,0,5.7,-0.5,0.8,2.2,14.2,0,5.3,0,0.7,2.1,21.2,-1.1,0.5,0,-0.5,-0.3,-2,-5.6,0,0,-0.6,-2.3,-15.6,0,3.2,0,0.6,1.2,8.9,0,2.5,0,0.3,1.1,5,0,0.5,-5.1,0,-1.5,-17.8,0,1.7,-7,0,2,-17.3,0,5.7,-10.7,0,5.2,-11,0,12.6,-7.4,0.7,4.1,8.5,0,13.2,-2.2,0.7,3.7,23.8,-0.4,9.7,0,0.7,2.8,26.9
75,122,357,143,72,77,52,28,52,28,56,28,0,0,40,20,56,28,28,16,32,20,44,28,52,32,48,28,48,24,0,6.9,0,0.8,1.6,17.9,0,10.3,0,1.2,1.2,26.7,0,3.4,0,0.6,-0.8,9.5,-8.8,0,0,-1,-1.3,-24.6,0,1.7,0,-0.1,1,3.4,0,7,0,0.8,0.3,19.6,0,1.9,-9.1,-0.8,-1.5,-21,0,3.5,-8.1,-0.4,0.6,-13.8,0,5.4,-6.6,0,1.1,-2.7,0,12.1,-3.2,0.6,0.6,25.7,0,13.7,-2.1,0.5,1.3,29.1,0,11.6,0,0.7,1.4,27.8
93,121,383,140,86,80,40,24,64,40,64,52,24,56,36,24,72,28,36,24,40,28,48,36,44,28,48,28,52,28,0,4,-4.2,0.9,0.7,-3.7,-0.4,7.1,0,1.7,0.7,22.4,-0.6,6.8,0,0.8,-0.7,21,-5.7,1.7,0,-0.9,-0.5,-12.8,0,2,-5.4,-0.3,0.3,-12.6,0,6.2,0,1.1,0.5,22.3,0,0.7,-2.7,0.4,0.9,-6.3,0,6.1,-13.9,0.3,1.7,-21.1,0,14.5,-20.9,0.6,1.3,-11.1,0,15.3,-11.5,0.8,0.5,-0.9,0,12.7,-5.4,0.8,0.6,15.3,0,9.4,-2,0.8,0.5,19.6
83,194,393,169,97,69,136,36,116,36,80,56,0,0,40,36,84,40,32,24,32,20,48,32,64,28,76,32,80,28,-0.4,7.5,0,0.7,1.7,50.8,0,8.4,0,0.7,1.8,48.7,0,2.6,-0.5,0.6,0,9.1,-7.9,0,0,-0.8,-1.7,-33.1,-0.4,3.3,-0.4,0.6,0.9,5.9,0,5,0,0.5,1.2,21,0,1.4,-8.3,-0.3,-1.4,-29.3,0,2.3,-10,-0.1,3.2,-24.4,0,12.6,-7.1,-0.2,3.8,3.3,0,13.8,0,0.5,2.3,44.1,0,11.6,0,0.4,1.9,44,0,8.7,0,0.4,1.3,34.8
84,153,383,181,86,73,68,28,48,28,24,12,36,52,60,40,36,16,0,0,28,16,36,24,40,28,44,28,44,24,0,6.3,0,0.3,1.1,21.4,0,3.5,-1.6,0.6,1.6,4.9,0,0.7,-3.8,0.4,0.6,-10.6,-4.9,1.1,0,-0.8,-1.2,-9.8,-0.7,5.9,0,0.7,-0.1,17,0,1.1,-2.9,0.4,1.3,-4.4,-4.5,0,0,-0.8,-1,-13.5,0,1.2,-5,0.1,0.5,-9.4,0,3.3,-8.9,0.4,2.4,-13.6,0,5.9,-6.1,0.6,1.9,-2.8,0,7.4,-4.1,0.3,1.6,5.6,0,6.6,-2,0.3,1.5,9.7
91,187,378,169,74,64,48,24,60,32,72,36,40,60,20,24,64,36,28,76,36,24,60,36,44,44,48,44,48,40,0,6.1,-1.7,0.7,2,11.2,0,9.9,-1.6,1.2,2.8,27.2,0,3.9,-1,0.5,0.8,12.8,-7.6,1.7,0,-0.9,-2.3,-16.3,-0.5,0.6,-1.8,-0.2,0.8,-3.5,0,7.3,-1.2,0.9,1.5,21.2,0,1.8,-7.1,-0.7,-2,-6.8,0,3,-5.1,-0.5,0.5,-5.8,0,5.6,-3.5,-0.4,4,11.2,-0.9,19.9,-3.5,-0.4,4.7,35.8,-0.7,15.5,-2.5,-0.2,3.5,31.5,-0.6,12,-1.9,-0.2,2.8,24.6
81,147,337,131,96,85,80,28,48,32,16,8,36,56,68,32,40,28,16,8,32,20,40,24,44,28,48,32,52,32,0,10.4,0,0.9,1.1,41.6,0,8.2,-3.2,1,0.8,15.8,0,0.5,-5.2,0.5,-0.4,-15.2,-8.4,1.3,0,-1.1,-0.6,-17.8,0,5.5,0,0.5,0.7,18.7,0,2.9,-3.7,0.9,-0.4,-2.3,0,0.6,-10.4,-0.8,0.7,-28.7,0,2.1,-11,-0.3,2.7,-23.1,0,6.7,-10.3,0.3,2.4,-7.2,0,8.9,-6.9,0.6,0.3,3,0,9.4,-3.7,0.7,0.2,14.4,0,8.5,-2,0.7,0.1,18.1
113,216,414,193,170,61,68,24,68,28,48,28,0,0,32,16,68,32,40,24,44,32,44,32,36,44,44,48,76,44,0,5.4,0,1.2,1.5,18.3,0,8.2,0,1.4,3.3,27.8,0,3.5,0,0.9,1.9,8.4,-6.8,0,0,-1,-2.4,-23.1,0,2,-0.9,-0.3,-0.3,2.3,0,5.6,0,0.8,2.7,19,0,2,-8,-0.4,-0.6,-23.2,0,9.3,-15.7,0.3,4,-26.7,0,21.3,-20.8,0.5,5.7,-19.7,-1.1,23.8,-11.8,1.4,5.9,1.4,-0.9,14.3,-1.5,1.3,4.6,25.9,-0.7,8.9,0,1,3.2,33
92,153,336,165,76,68,48,20,44,24,16,40,48,52,92,20,56,40,32,20,36,20,48,28,56,36,60,40,56,36,0,4,-0.8,0.8,1.9,8,0,4.6,-2.2,1.1,2.7,5.7,0,0.4,-0.6,0.5,0.8,-2.4,-4.5,1.5,0,-0.8,-2.1,-6.3,0,2.1,0,0.3,0.5,9.6,0,2.9,-1.8,0.6,1.5,4.2,0,2.4,-6.1,-0.6,1.8,-15.7,0,5.6,-6.7,-0.2,2.1,-2,0,10.4,-5.1,0.7,6.9,15.8,0,18.1,-3.5,0,4.8,46.4,0,11.2,-2.2,0,3.1,29.7,0,6.8,-1.2,0,2.1,17.1
81,160,347,154,81,72,52,24,56,32,60,32,0,0,20,12,56,32,32,16,44,32,56,36,52,32,48,36,48,40,0,4.6,0,0.5,1.3,11.9,0,11.1,0,1.1,2.5,31,0,6.8,0,0.6,1.1,20.4,-7.6,0,0,-0.8,-1.9,-21.2,0,0.6,-1.6,-0.1,0.2,-1.9,0,8.8,0,0.8,1.8,24.6,0,2.3,-7.7,0.3,-1.2,-13.3,0,4.7,-7.9,0.4,-0.3,-5.5,0,10.1,-2.9,0.7,0.9,23.6,0,13.6,-1.8,0.6,1.8,32.8,-0.4,11.8,-1,0.5,2.2,26.7,-0.4,9.6,0,0.5,2.1,22.7
74,115,377,116,67,60,48,28,48,28,40,24,20,52,28,36,44,24,20,8,20,12,48,40,52,36,52,32,52,28,0,4.9,0,0.4,0.4,11.7,0,9.1,-0.9,0.8,0.8,20.9,0,5.3,-1,0.4,0.3,9.2,-6.9,0.6,0,-0.6,-0.5,-15.9,-0.9,1.5,0,-0.1,0,1.1,0,7.2,-0.9,0.6,0.5,14.8,0,0.5,-9.2,0,-0.2,-27.1,0,0.7,-8.5,0,1.7,-26.5,0,1.8,-5.4,0,2.8,-4.3,0,16.6,-4.9,0.5,1.2,34.3,0,12,-2.1,0.7,1.1,27.9,0,8.7,0,0.5,0.6,22.6
78,159,356,164,83,86,36,20,44,32,20,12,40,44,60,20,32,24,16,4,28,16,32,20,36,20,36,20,36,20,0,4.2,-1.1,0.5,1.2,5.6,0,2.3,-3.9,0.2,2,-2,0,0.9,-4,-0.7,0.8,-11.1,-2.9,2.2,0,-0.4,-1.4,-0.8,0,3,0,0.5,0.4,9,0,0.4,-3.8,0.3,1.2,-9.2,0,0.5,-5.3,-0.7,0.5,-13.3,0,1.6,-5.9,0.1,2.5,-9.6,0,4.1,-11.2,0.2,6.5,-15.9,0,12.6,-11.2,0.4,6.7,2.5,0,11.1,-6.9,0.4,4.2,2,0,7,-2.7,0.4,2.6,6.2
80,137,342,243,92,92,60,36,44,24,32,24,0,0,56,40,40,28,24,16,28,16,32,20,48,32,40,24,40,32,-0.8,6.2,0,0.9,2.8,17.8,0,5.1,-2.2,2.1,4.2,6.8,0,1.3,-4.9,1.4,1.3,-11.7,-5.4,0,0,-1.4,-3.4,-10.8,-1,5,0,-0.5,0.7,12.8,0,3,-3.2,1.7,2.6,-1,0,2,-6.2,-1.1,-1.8,-12.4,0,5.4,-11.7,0.2,5.9,-18.2,0,5.4,-8.8,0.6,8.3,-9,0,9.7,-6.1,1,7.1,15.9,0,10.9,-3.5,1.2,5.6,14.8,-0.4,9.4,-1.4,1.3,4.3,16.1
82,136,347,164,82,103,48,32,36,36,48,44,28,44,36,20,44,32,32,20,40,24,40,28,36,24,36,36,36,36,0,5.6,-1.8,1,1.1,10.2,-0.5,7.3,-1.1,1.1,1.3,10.9,-0.9,1.6,0,0.8,0.4,2.6,-6.5,1.3,0,-0.9,-0.9,-11.2,0,1,-1.5,0.4,0.7,-0.6,-0.4,5.9,0,0.5,0.6,12.6,0,1.6,-6.1,-0.4,0.6,-12.1,0,4.4,-9.4,0.3,1.8,-15.6,0,10.9,-13.3,0.4,2.2,-10.1,0,14.4,-10.8,0.7,1.8,-2.1,-0.7,12.7,-5.3,0.7,1.2,9.6,-0.7,9.5,-2.1,0.7,0.8,11.8
95,163,331,141,93,89,60,24,60,56,44,56,20,8,44,28,56,52,36,24,44,32,44,32,48,32,44,28,56,48,0,6.8,0,1.1,-0.7,20.4,-1.7,3.5,0,1.1,1.1,7.5,-5.6,2.8,0,0.4,1.3,-7.3,0,0.4,-4.7,-0.9,-0.6,-15.5,0,5.5,-2.2,-0.1,-0.5,6.9,-2.9,4.1,0,0.8,1.1,5.6,0,3.4,-12,0,2.3,-27.5,0,8.6,-20,0,5.7,-29.1,0,11.3,-21.3,0,5.9,-26.3,0,12.5,-12.6,0.8,3,2.3,0,7.3,-3.5,0.6,0.8,5.5,-0.9,4.4,0,0.6,0.3,10.9
106,183,380,147,94,70,52,24,48,24,0,0,0,0,56,28,28,32,28,16,36,20,48,32,52,36,44,28,52,40,0,8.4,0,0.8,0.4,21.8,0,4.3,0,0.9,1.2,10.3,-4.2,0,0,0.2,0.9,-14.2,-6,0,0,-0.6,-0.4,-16.8,0,5.7,0,0.3,-0.4,15.9,-0.4,1,0,0.4,0.8,1,0,2.4,-9.9,-0.4,1,-24.9,0,3.6,-11.2,0.2,0.3,-29.4,0,5.6,-15.8,0.5,0.3,-34,0,9.3,-9.7,0.4,0.4,-6.9,0,9.2,-3.1,0.5,0.6,10.9,-0.4,8.2,-1.3,0.5,0.8,17.9
95,159,358,166,96,73,56,28,36,24,20,8,52,52,64,24,32,16,28,20,36,24,44,28,44,28,44,28,40,24,0,6.6,-0.7,0.5,0.9,16.8,0,4.1,-5.6,1.4,1.4,-9.5,0,0.9,-8.1,1.3,0.5,-26.6,-4.9,2.4,0,-0.9,-1.1,-3.6,0,6.6,0,-0.7,0.2,21.1,0,1.8,-6.5,1.3,0.9,-16.7,0,1.6,-7.6,-0.8,2.3,-20.6,0,4.8,-7,-0.6,4.5,-9.6,0,10.5,-16.7,-0.4,7.2,-20.3,0,15.8,-15.3,0.5,2.6,-17.3,0,12.7,-10.5,0.5,1.1,-7.8,0,8.1,-6.5,0.6,0.8,-5.9
100,145,377,152,101,72,56,28,48,32,44,28,40,60,52,28,48,32,24,12,32,24,40,24,48,32,48,32,44,28,0,5.1,-0.5,0.4,1.2,13.4,0,7.8,-3,1,3.2,13.3,0,2.7,-3.7,0.7,2,-0.7,-6.4,1.4,0,-0.7,-2.1,-13.8,0,2.5,0,-0.2,-0.4,6.5,0,5.2,-3.2,0.8,2.5,6.7,0,1.1,-11.1,0.3,-0.4,-32,0,3.6,-19.7,0.3,6.1,-49.4,0,5.5,-17.3,0.5,10.1,-30.5,0,7,-12,0.6,6.5,-7.2,0,13.4,-9.5,0.6,4.5,13.1,0,12,-5.5,0.6,3.3,12.1
90,157,378,144,88,75,44,44,48,24,40,20,16,64,60,44,56,36,32,20,52,36,56,40,40,40,40,40,40,40,-1.1,10.6,0,0.5,0.6,22,0,10.7,-1.7,0.4,1.5,23.6,0,1.6,-1.4,0.1,0.9,0.2,0,0.5,-10.6,-0.5,-1,-21.1,-1.2,5.6,0,0.5,-0.1,15.2,0,5.4,-1.5,0.2,1.2,13,0,3.5,-8.1,-0.5,-0.9,-10.7,0,5.6,-4,0.2,0.7,10.6,0,21.7,-9.1,0.4,1.9,44.4,-1,30,-8,0.4,1.4,43,-1.4,22,-3.4,0.3,1.3,35.8,-1.2,13.2,-0.8,0.3,1.1,23.6
71,148,409,139,93,56,60,28,40,24,0,0,0,0,64,24,20,12,20,8,32,20,40,24,40,28,44,24,44,24,0,6,0,0.9,1.6,18,0,3.8,-1.3,0.6,1.2,5.8,-2.5,0,0,-0.4,-0.4,-9,-5,0,0,-0.2,-1.1,-12,0,3.8,0,0.4,0.8,12.1,0,1.1,-1.4,-0.4,0.3,-1.4,0,0.5,-7.3,0.1,-1,-18.4,0,3,-8.6,0.6,1.1,-17.5,0,7.2,-7.2,0.6,1.1,-1.4,0,7,-5,0.5,0.3,2,0,6.8,-2.4,0.3,0.7,10.1,0,6,-0.9,0.3,1.1,11.6
78,162,351,152,97,78,48,28,84,32,76,32,0,0,0,0,84,32,16,8,28,16,44,28,52,32,56,32,60,32,0,4.9,-1,0.6,1.3,9.9,0,9.9,0,1.1,1.4,41.5,0,6,0,0.7,-0.7,22.8,-7.1,0,0,-0.7,-1.4,-24.1,-2.6,0,0,-0.3,0.7,-6.7,0,7.8,0,0.8,0.7,32.7,0,0.6,-6,-0.7,0.7,-16.4,0,2.7,-7.3,-0.5,3.4,-13.8,0,5.6,-6.2,-0.6,4.2,1.2,0,10.3,-2.1,0.3,1.7,23.4,0,11.3,-1.1,0.4,1.7,30.1,0,10.3,0,0.5,1.5,30.9
77,205,345,144,149,67,40,24,44,24,60,16,32,48,36,24,60,24,32,20,36,24,48,28,44,28,44,24,36,32,0,5.9,-1.8,0.7,2,8.2,0,9.8,-0.9,0.7,1.6,19.9,0,3.8,0,-0.4,-0.4,11.4,-8,1.3,0,0.3,-2,-15.6,0,1.1,-1.4,-0.4,1.3,-0.6,0,7,0,0.3,0.7,21,0,4.1,-5.6,0.1,-1.2,-2.4,0,6.5,-9,0.1,3.5,-11.7,0,7.4,-5.8,0.3,3.1,6.1,0,10.6,-2.8,-0.3,1.8,18.3,0,10.6,-1.7,-0.2,2.1,20.6,-0.4,8.9,-0.9,-0.3,1.9,14.3
87,157,394,166,91,57,48,48,40,32,24,12,20,8,52,48,0,0,28,16,40,20,40,40,40,44,44,44,48,40,-1.5,14.6,0,0.9,1.8,33.2,-0.4,6,0,1.2,1.7,11.7,0,1.1,-10.3,0.4,-0.2,-22.7,0,0.8,-9.9,-1,-1.8,-22.9,-1.1,12.3,0,0.4,1,30.8,-3.9,0,0,0.7,0.8,-6.2,0,1.6,-12.5,0.2,1.8,-32.8,0,5.6,-4.5,0.3,5.5,7.1,-1,15.8,-8.2,0.9,7.2,14.4,-1.1,15.7,-5.5,0.8,4.3,18.2,-1,13,-2.1,0.7,2.9,23.4,-0.9,10.1,0,0.6,2,23.3
79,172,266,198,93,75,52,36,48,32,32,16,0,0,60,40,40,28,16,8,24,12,48,28,52,36,52,36,48,32,-0.4,9.1,0,0.5,-0.5,23.4,0,6.4,-1.6,0.7,-0.4,12.5,0,1.6,-6.1,0.3,0.2,-14.5,-7.4,0,0,-0.5,0.4,-20.7,-0.7,7.3,0,0.3,-0.3,21.2,0,2.7,-3.3,0.4,-0.2,-1.2,0,0.7,-7.4,-0.6,0.1,-18.7,0,0.9,-4.6,-0.2,0.3,-10,0,3.5,-4.8,0.1,0.1,1.7,0,7.7,-4.2,0.2,-0.5,11.6,0,7.3,-3,0.3,-0.5,12.9,0,6.8,-1.3,0.3,-0.6,13.7
85,165,415,172,82,64,40,24,88,28,76,32,0,0,32,12,80,32,24,12,28,16,44,28,48,28,52,28,60,24,0,4.1,-2.5,1,1.4,2.2,0,8,0,1.4,0.5,35.2,0,6.5,0,0.9,-1.1,24.7,-5.9,0,0,-1.1,-0.9,-24.7,0,0.9,-4.2,-0.2,1.2,-9.5,0,6.5,0,1.1,-0.4,26,0,1,-5.8,-0.9,0.6,-16.2,0,4,-13.7,0.5,2.5,-32.7,0,9.3,-9.3,0.8,2.8,-1.9,0,15.8,-5.6,1,1.8,26.7,0,15.9,-2,0.9,1.6,37.7,0,12.5,0,0.7,1.2,37.5
92,240,439,167,123,79,36,44,40,44,20,8,24,68,36,36,48,28,36,24,48,24,40,28,32,40,36,40,44,44,-1.4,7.4,0,0.9,-1,11.4,-1.1,6.1,-1.3,0.6,0.7,8.3,0,0.5,-1.3,-1,0.7,-3.9,0,0.7,-7.2,-0.9,-0.3,-12.4,-0.6,4,0,0.6,-0.1,6.6,0,3.2,-0.9,0.7,0.6,6.2,0,3,-8.9,-0.7,2.8,-14.1,0,2.4,-7.7,0.1,1.8,-6.6,0,6.8,-10,0.4,1,-8.4,-0.8,8.8,-6.8,0.2,0.9,-4.4,-1.2,9.6,-2.8,0.3,0.4,9.7,-1.3,8.2,-1.2,0.4,0.4,14.4
98,157,304,130,78,92,44,24,60,44,48,56,20,8,48,32,56,52,32,20,36,24,40,28,48,32,44,24,60,40,0,6.8,-1.4,0.5,0.3,11,-1.6,5.8,0,0.9,-0.9,15.2,-5.1,6,0,0.4,-1.2,3.2,0,0.4,-5.3,-0.7,0.3,-16.5,0,5.7,-3.6,-0.1,0.7,3.6,-2.7,5.6,0,0.6,-1,10.8,0,1.9,-7.5,0,0.7,-19.5,0,5.8,-14.4,0,3,-29.9,0,8.2,-15.3,0,4.2,-23.3,0,5.2,-5.3,0.6,1.5,0.8,0,7,-1.6,0.8,-0.3,11.6,-0.7,6.3,0,0.7,-1,18.1
68,200,347,164,111,82,52,28,24,16,20,52,0,0,56,32,16,52,0,0,20,8,24,12,32,20,36,24,40,28,0,7.8,0,1.2,-1.4,20.2,0,0.7,-2.9,1.5,-0.3,-2.9,-8.8,1.3,0,0.5,1.3,-19.8,-4.2,0,0,-1.4,0.9,-11.7,0,8.1,-1.1,0.7,-1.3,21.8,-4.8,0.8,0,1.1,0.5,-10.9,-10.1,0,0,0,-0.3,-28.2,0,1.1,-12.1,0,0.4,-25.5,0,2,-13.2,0,0.4,-24,0,2.1,-9.9,0.5,0.5,-14.5,0,2.6,-5.6,0.7,0.3,-3.9,0,3.3,-2.5,0.7,0.3,4.1
84,178,340,231,98,84,36,48,48,48,36,48,24,12,44,28,36,52,48,28,52,32,60,40,56,36,44,28,64,40,-0.6,5.8,-2,0.8,-0.6,6.4,-2.7,1.7,0,1.1,0.8,-1.4,-6.4,2.2,0,0.4,1.1,-8.9,0,0.9,-3.4,-0.9,-0.3,-3.1,0,6.3,-1.5,-0.1,-0.9,11.4,-3.8,1.2,0,0.6,0.9,-6.2,0,6.8,-2.3,-1,1,10.8,0,11.6,-5.4,0.4,1.9,18.3,0,18.2,-4.5,1,-1.5,47.4,0,11.6,-2.6,0.8,0.6,27.2,0,6.2,-1.2,0.6,0.5,11.7,-1.7,2.3,0,0.5,0.4,5
92,187,367,122,102,77,36,20,76,24,72,24,0,0,24,12,76,24,24,12,28,16,36,20,44,28,44,28,52,24,0,3.4,-1.2,0.4,0.9,4.5,0,6.6,0,1.5,0.2,25,0,4,0,1,-0.7,14.4,-4.8,0,0,-1,-0.5,-11.5,0,0.8,-2.1,-0.3,0.8,-3.7,0,5.1,0,1.3,-0.5,19.3,0,1.6,-8.5,0.1,-0.9,-25.3,0,3.5,-20,0.3,2.3,-51.1,0,3.6,-9.5,0.6,1.1,-20.2,0,6.4,-5.5,0.7,0.5,-0.3,0,7.3,-1.9,0.8,0.6,11.5,0,6.9,0,0.8,0.7,17.9
110,157,426,198,94,66,36,44,72,44,48,36,28,72,32,40,76,80,40,28,44,32,28,40,36,44,32,44,36,44,-1,6.6,-2.7,0.5,-0.9,4.5,-1.1,4.3,0,0.6,0.4,13.7,-2.6,2.9,0,0.1,0.6,3.8,0,1.2,-4.9,-0.8,-0.6,-3.9,-0.6,4.5,-2.7,0.2,-0.8,0.1,-0.7,1.8,0,0.6,0.6,6,0,2.2,-5.4,0.5,-0.5,-13.9,0,3.6,-11.4,0.3,1,-28.5,-1,9.2,-15.7,0.4,0.8,-38.6,-1.1,11.2,-10.2,0.3,0.9,-15.8,-1.2,8.2,-4.3,0.5,0.5,-3.1,-1.1,5.9,-2,0.5,0.5,2.9
73,132,349,154,64,71,64,20,0,0,0,0,28,44,76,28,0,0,0,0,0,0,16,8,36,16,44,32,44,28,0,2.7,0,0.5,2,8.6,-2.8,0,0,0.5,2.5,-10.6,-4,0,0,-0.5,0.5,-16,-1.4,1.1,0,0.1,-1.7,-1,0,3,0,-0.1,0.8,11.4,-2.4,0,0,-0.1,0.8,-8.1,-8.7,0,0,0.3,-1.2,-24.3,-14.7,0,0,0.5,1.2,-44.1,0,0.5,-8.4,0.6,4.4,-23.1,0,0.9,-5.1,-0.1,4.2,-8.6,0,2.1,-3.3,-0.1,3.3,-1.3,0,2,-1.6,-0.1,2.2,0.9
81,191,354,127,99,84,48,28,80,32,68,40,0,0,16,4,76,32,0,0,24,16,40,24,44,32,44,24,56,28,0,2.6,0,0.4,0.8,6.2,0,6.8,0,1.1,0.8,27.2,-0.4,5.5,0,1,-0.1,18.4,-4.5,0,0,-0.6,-0.7,-17.1,0,0.4,-2.7,-0.4,0.4,-7.2,0,6.5,0,1.1,0.3,24.7,-9.7,0,0,0,-0.2,-31,0,1,-13.6,0,1.9,-39.6,0,3.6,-14.9,0,3.7,-25.5,0,11.8,-7.4,0.5,1.7,12.6,0,11.1,-2.1,0.7,1.2,21.1,0,7.7,0,0.7,0.7,21.5
87,137,392,137,91,63,72,28,48,36,16,4,0,0,68,40,16,8,40,20,60,40,60,44,60,44,60,44,64,40,0,9.6,0,0.9,0.5,34.5,0,2.5,-1.3,1,0.9,4,0,0.5,-7.4,0.4,0.6,-23.2,-6.1,0,0,-1,-1.1,-15.8,-0.4,8.3,0,0.6,0.3,28,0,0.4,-3.3,0.7,1,-10.9,0,1.9,-5.1,-0.6,0.7,-6.4,0,10.9,-2.7,0.3,2.1,29,0,21.1,-6,0.3,2.2,54.9,0,18.6,-6.9,0.7,-0.9,42,0,16.2,-3.6,0.8,-0.6,41.4,0,13.9,0,0.8,0.9,44.4
87,145,347,207,79,84,48,28,60,40,64,60,0,0,40,24,60,44,24,12,28,16,36,20,52,32,48,40,52,44,0,8,-1.1,0.3,0.8,18.3,-0.4,10,0,-0.4,-1.2,29.7,-0.5,2.9,0,-0.5,-0.9,8.7,-9.3,0,0,-0.6,1.2,-24.1,0,3.5,-1.4,0.2,0.5,5.1,-0.6,5.9,0,0.4,-0.8,17.1,0,1.5,-9.3,0.1,-0.5,-24.2,0,2.3,-6.2,0.2,0.5,-16.6,0,3.5,-5.8,0.3,0.9,-11.1,0,10.6,-2.7,0.6,-0.6,23.2,-0.4,12.3,-2,0.6,-0.9,26.4,-0.7,11.2,0,0.5,-0.8,28.4
95,139,394,149,93,77,48,40,44,40,52,20,20,72,52,36,48,28,32,20,44,24,52,40,44,28,40,44,44,48,-0.8,7.3,-0.5,0.9,1.6,16.1,-0.7,8.5,-1.3,1.1,1.4,15.7,0,1.5,-1.1,0.6,-0.6,1.7,0,0.7,-7.9,-0.9,-1.4,-17.1,-0.6,3,0,-0.1,0.9,7.1,0,4.9,-1.2,0.8,0.6,9.6,0,2.8,-11.2,-0.8,0.5,-29.2,0,2.7,-10.4,-0.5,4,-19,0,7.1,-7.9,-0.2,4.7,4.2,0,9,-4.4,0.5,2.5,11.9,-0.6,8.3,-1.9,0.7,2,13.3,-0.9,8.1,-0.9,0.5,1.9,15
73,156,332,190,97,94,40,20,40,24,40,24,36,44,36,40,40,24,24,12,32,20,44,28,48,32,48,28,44,24,0,2.1,-0.6,0.8,1.3,3.2,0,7.8,-3.1,0.8,2,9.4,0,5.6,-2.4,0.5,0.6,6.4,-4.7,2,0,-0.5,-1.2,-5.8,-2,0.9,0,-0.2,0.3,-2,0,6.7,-2.8,0.6,1.1,8.4,0,1.1,-5.3,0.1,-0.3,-7.1,0,2.3,-4.7,0.1,2.1,-4.8,0,4.3,-5.5,0.3,3.4,0.6,0,8.5,-3.7,0.6,3.1,13,0,8.3,-2.5,0.5,2,15.4,0,6.6,-1.7,0.5,1.5,11.5
95,191,377,171,89,82,44,24,56,44,68,44,36,56,24,12,64,44,24,12,28,16,36,20,60,40,52,32,52,40,0,2.1,-2.1,0.4,1.2,-0.4,-0.5,13.7,0,1.1,2.3,37.8,-0.8,12.3,0,0.7,1.1,41,-7.5,0.8,0,-0.7,-1.6,-18.1,0,0.6,-5.8,-0.2,0.5,-16.7,-0.6,13,0,0.9,1.6,41,0,0.8,-8.1,0.2,-1.1,-21.7,0,3.2,-14.8,0.1,1.6,-42.9,0,2.8,-7.5,0.2,4.5,-14.5,0,12.4,-4.9,0.4,4.9,28.4,0,15,-2.2,0.3,3.1,34.6,-0.4,12.9,-1,0.6,2.3,31.5
97,128,390,169,67,74,68,40,84,44,56,56,0,0,56,32,80,44,24,16,40,24,52,36,44,32,48,28,64,40,-0.5,14,0,0.5,2.2,47.2,-0.7,13.5,0,-0.7,2.2,56,-1.7,2.9,0,-1,0.3,4.7,-14.1,0,0,0.1,-2.3,-62,0,8,-0.9,0.6,1,20.6,-0.7,6.1,0,-0.7,1.3,23.7,0,1,-18.3,-0.8,-1.7,-61,0,4.5,-15.5,-0.9,2.9,-31.3,0,13.9,-16,-0.9,3.9,0.9,0,17.7,-13.9,0.6,1.5,0,0,18.5,-4.5,0.6,0.8,33.6,-0.4,16.4,0,0.8,1.5,52.1
76,187,396,155,121,89,44,24,40,20,12,48,28,52,44,24,24,12,28,16,40,20,44,28,48,32,44,28,40,24,0,8.2,-1.6,0.8,0.4,15.2,0,4.7,-1.7,0.7,0.6,6.4,-3.5,0.4,0,0.2,0.2,-7.5,-6.9,1.4,0,-0.3,0.2,-13.2,0,6.8,-1.1,0.5,-0.1,13.4,0,1,-0.6,-0.5,-0.1,0.5,0,1.7,-5.7,-0.3,-0.5,-12.5,0,4.6,-7.5,0.2,-0.2,-8.8,0,8.2,-8.4,0.3,0.3,-0.4,0,8.2,-5.6,0.3,0.2,7.3,0,8.4,-4.2,0.4,0.3,9.2,0,7.1,-2.9,0.3,0.4,7.9
62,160,376,136,104,68,60,32,68,20,0,0,0,0,52,28,28,12,24,12,36,20,52,28,48,24,56,28,72,28,0,7.5,0,1,0.9,22.5,0,4,0,0.6,1.2,13.6,-3.8,0,0,-0.5,0.6,-9.8,-5.6,0,0,-0.8,-0.8,-15.6,0,5.6,0,0.7,0.3,14.5,0,0.8,0,0.2,0.8,1.1,0,1.3,-6.8,0.4,0.5,-17.5,0,2.9,-3.9,0.8,2.3,-4.9,0,6.8,-2.4,0.9,2.8,13.8,0,6.2,-1,0.5,1.5,13.6,0,6.8,0,0.5,1.4,19,0,5.5,0,0.4,1.1,19.8
86,168,310,220,84,81,60,52,52,32,20,12,0,0,60,48,24,76,24,12,36,20,44,32,40,28,44,32,44,28,-0.5,15.9,0,0.9,-1.7,47.1,0,6.9,-1.9,0.9,-1.4,16.6,0,0.7,-9.7,-0.5,0.7,-26.4,-11.3,0,0,-0.9,1.5,-38.4,-0.6,12.6,0,0.6,-1,37.2,0,0.7,-3.9,0.6,0.3,-7.7,0,1.6,-19.4,0.1,1.4,-56.3,0,3.7,-18.3,0.2,3.1,-40.9,0,11.3,-14.3,0.3,0.8,-15.2,0,5.4,-9.3,0.4,-0.4,-13.3,0,6.1,-5.3,0.3,-0.3,0.7,0,4.9,-2.9,0.4,-0.3,4.4
71,124,367,168,68,73,52,28,44,24,36,20,16,48,40,16,48,24,28,16,32,20,48,28,52,32,48,28,48,24,0,5.5,0,0.6,2.6,14.3,0,7.4,-1,0.6,2.8,15.4,0,1.9,-0.6,0.2,0.2,3,-6.2,0.5,0,-0.6,-2.6,-14.4,0,1.1,0,0.3,1.1,2.2,0,5.4,0,0.4,1.5,12.9,0,1.5,-6.8,-0.4,-1.8,-16.9,0,3.5,-5.8,0.1,2,-7.1,0,4.5,-3.8,0.2,4.2,5.5,0,8.6,-2.3,0.3,3.3,20,0,10.3,-1.3,0.3,4.1,23.7,0,9.5,-0.5,0.3,3.5,22.5
68,175,391,147,114,60,40,20,72,28,72,28,0,0,0,0,72,28,24,12,32,20,56,36,52,32,52,28,48,24,0,3,0,0.6,1.3,6,0,11.3,0,1.3,2.4,40.6,0,8.5,0,0.7,1.1,30.6,-7.1,0,0,-0.7,-2.1,-17,-2.8,0,0,-0.2,0.3,-8.9,0,9.7,0,0.8,2,34.9,0,1.5,-8.4,0,-0.3,-16.6,0,2.8,-5.2,0,3.3,-6,0,8.7,-1.9,0,5,22.4,0,13.9,-1.9,0.4,3.9,34.2,0,12.2,-1.1,0.5,2.9,30.6,0,9.8,-0.6,0.4,2.3,22.9
90,176,355,150,108,69,44,24,44,28,20,8,40,56,44,40,32,8,24,12,40,20,44,28,48,32,44,28,44,28,0,6.4,-1.2,0.5,1.7,11.9,0,3,-1.6,0.9,2,3.8,0,0.5,-3.8,0.5,0.3,-10.9,-4.6,1.4,0,-0.7,-1.8,-7.3,-0.4,5.1,0,-0.1,0.7,10.8,0,0.4,-1.2,0.7,1.1,-2.2,0,0.7,-3.2,0,-0.6,-9.4,0,4.9,-7.4,0,2.3,-9.4,0,10.9,-13.3,0,3.9,-13.3,0,14.3,-13.6,0.4,3.8,-6.5,0,12,-8.6,0.4,3,-1.1,0,8.1,-3.4,0.4,2.3,7.6
86,109,374,167,61,64,56,32,52,48,56,44,0,0,0,0,72,36,32,20,36,24,40,24,60,40,52,32,48,40,0,7.9,0,1.5,2.4,22.1,-0.7,17.3,0,1.5,2.3,44.2,-0.6,10.1,0,0.2,-1,27.8,-12.7,0,0,-0.8,-2.2,-40.6,-2.5,0,0,0.5,1.3,-6.5,0,14.3,0,0.4,1,51.4,0,2,-13.9,-0.7,-1.2,-32.9,0,4.5,-12.8,0.2,3.2,-25.1,0,7.1,-8.6,0.5,6.6,-8.1,0,13.4,-4.1,0.6,4.7,32.9,0,19.9,-2.9,0.5,3.1,46.5,-0.4,17.3,0,0.5,2.5,41.2
80,168,368,184,93,58,40,32,60,36,72,44,0,0,12,28,64,40,20,4,28,16,56,40,56,36,52,32,52,28,-0.5,4,-0.9,0.6,0.3,6.6,0,8.6,0,1.1,4,25.8,0,5.1,0,0.7,3.6,18.3,-6.1,0,0,-0.8,-2.1,-15.8,-0.9,0.4,-1.3,-0.1,-1.7,-3.4,0,6.5,0,0.9,3.8,20.8,0,0.4,-4.8,-0.5,-0.9,-11.1,0,1.8,-5,0.3,-0.8,-7.5,0,7,-6.3,0.4,0.6,7,0,16.5,-5.2,0.7,3,35.8,0,15.3,-2.9,0.7,3.6,33.9,0,10.4,-1.1,0.6,2.8,25.1
90,161,349,209,98,91,44,28,48,32,40,24,48,52,20,56,40,28,64,52,40,24,40,28,44,28,36,24,36,20,0,4.4,-4.5,0.9,0.4,2.4,0,13.7,-9.6,1.6,6.7,17.5,0,10.8,-5.4,0.7,6.4,9.8,-8.7,7.1,0,-1.3,-3.6,-2.1,0,0.8,-4.3,0.2,-3,-4.2,0,11.9,-7.7,1.2,6.5,5.4,0,10.6,-8.5,1,-3.3,18.6,0,18.1,-17.2,1.2,-3.2,-8.4,0,27.2,-41.2,1.4,5.3,-36.2,0,15.9,-15.7,1,5.7,-9,0,11,-8,0.7,4.7,-2.6,0,8.6,-4.6,0.6,4.2,3.5
93,160,321,172,101,92,32,20,32,36,32,40,28,40,24,12,28,32,32,20,36,24,36,24,40,28,36,24,28,32,0,1.3,-2.9,0.6,1.1,-3.2,-0.5,8.6,-4.7,1.6,3.2,6.7,-1.3,9.4,-3,1.2,2.2,6.9,-4,3.4,0,-1.1,-2.1,-1.7,0,1,-5.6,-0.6,-0.7,-5.9,-0.7,9,-3.7,1.6,2.7,6,0,3.5,-5.1,0.1,-0.3,-10.7,0,6.7,-12.8,0.2,2.5,-16.1,0,9.1,-21.6,0.3,5.3,-31.2,0,7.3,-19.1,0.6,5.3,-23.6,0,4.9,-10.1,0.7,3.4,-11.4,-0.4,5.3,-3.7,0.7,2.1,1.2
91,151,410,198,86,59,48,24,48,32,20,8,44,68,48,20,52,36,24,80,36,24,44,32,44,32,44,28,48,28,0,4.9,-1.5,1.1,-0.2,8.7,0,4.1,-1.4,0.6,0,6.8,0,0.5,-1.1,-0.6,0,-2.1,-4.4,1.3,0,-0.8,0.3,-7.7,0,2.9,-0.9,0.8,0,5.3,0,1.8,-1,0.2,0,2.4,0,0.6,-5.3,0.2,4,-9.5,0,2.2,-12.7,0.9,8.7,-26.5,0,8.8,-17.8,1.1,8.9,-19.8,0,9.4,-13.5,1,4,-11.8,0,7.1,-6.2,0.5,-0.8,-1.7,0,4.7,-1.5,0.4,-1.4,7.6
111,166,339,200,100,74,48,24,80,52,76,56,20,12,12,4,84,44,28,16,32,20,40,24,44,28,48,44,52,44,0,2.8,-1.5,0.6,1.7,5.1,-1.1,16.4,0,1.7,-1.8,64.3,-1.1,14.2,0,1.5,-1.8,52.2,0,0.6,-9.2,-1.1,-1.2,-30.6,0,0.5,-6.7,-0.8,1.5,-27.8,-0.9,15.5,0,1.5,-1.6,64.2,0,2.2,-13.7,-0.1,1.6,-43.5,0,4.2,-21.9,-0.1,6.6,-59,0,5,-19.4,-0.3,6.2,-44.3,0,12.7,-6.2,1,2.8,10.6,-1.1,14.3,-1.6,0.9,2.2,29.7,-1,12.4,0,0.8,1.5,31
89,168,329,163,101,98,40,24,60,52,44,60,0,0,56,36,48,60,44,20,56,40,52,36,52,32,44,40,44,40,0,3.3,-1.2,0.8,0.8,4.5,-1.1,2.5,0,1.5,-0.5,5.8,-2.2,3.4,0,0.9,-1.2,2.2,-2.6,0,0,-1,-0.3,-5.7,0,3,-1.9,-0.1,1,5,-1.6,2.5,0,1.1,-0.7,2.5,0,1.3,-2.4,-0.5,1.2,-3.4,0,5.1,-4.6,-0.3,3.8,4.1,0,9.6,-8,-0.6,5.8,7.3,0,11.9,-4.6,0.5,2.6,19,-0.4,8.4,-2,0.8,0.5,13.3,-0.6,4.2,-0.5,0.9,-0.5,7.9
79,131,360,140,77,79,44,24,40,24,24,16,24,48,76,24,36,20,32,20,40,24,48,32,40,28,40,24,40,24,0,6.2,-0.8,0.8,2,13,0,6.1,-2.9,0.6,2.2,8.8,0,0.4,-2.4,-0.3,0.3,-5.8,-6.1,1.9,0,-0.7,-2.2,-10,0,3.4,0,0.5,0.9,12.9,0,3.1,-2.5,0.2,1.3,1.5,0,2.3,-8.1,0.2,-1.2,-15.8,0,5.3,-8.9,0.5,2.8,-5.4,0,6.2,-7.8,0.5,3.1,2.4,0,8.3,-6.3,0.5,2.6,6.6,0,7.6,-3.6,0.3,2.3,10.9,0,6.8,-2.1,0.1,2.2,11.1
77,106,465,147,57,89,56,28,60,32,52,24,0,0,72,16,56,28,20,8,24,12,32,20,44,28,48,40,48,44,0,4.7,0,0.4,-1.4,13.1,0,8,0,1.1,-0.7,24,0,3.3,0,0.7,1,8.5,-6.3,0,0,-0.8,1,-17.6,0,0.8,0,-0.2,-1,2.8,0,5.6,0,0.9,0.3,15.6,0,0.6,-8.3,-0.6,1.3,-20.9,0,1.2,-10,-0.4,1.6,-22.6,0,2.6,-12,-0.3,1.1,-19.9,0,13.2,-5.2,0.4,-1.3,18.6,-1,17,-2.1,0.9,-2.1,37.1,-0.8,12.6,-1.3,1,-1.7,27.9
78,113,342,125,58,81,44,24,56,28,28,40,0,0,36,20,48,28,28,16,40,20,52,36,44,28,48,24,56,28,0,3.6,0,0.4,0.8,7.9,0,2.4,0,0.8,1.8,6.7,-1.2,1,0,0.4,1,-0.5,-2.8,0,0,-0.6,-1.3,-6.7,0,2.3,-0.7,0,-0.2,3.3,0,1.1,0,0.6,1.4,2.6,0,1.1,-3.2,-0.1,-0.7,-8.1,0,1.8,-3.4,0,-0.2,-4.5,0,4.1,-4.3,0.4,0.8,2.9,0,4.5,-2.8,0.6,1.2,4.3,0,3.2,-0.7,0.5,1.4,6.5,0,3,0,0.5,1.4,8.4
87,136,356,202,87,75,44,20,48,32,24,12,44,56,72,36,40,28,32,20,40,28,44,28,44,28,44,28,40,20,0,6.1,-0.5,0.8,2.1,12.5,0,4.6,-3.8,1.1,1.6,1.9,0,1.5,-5,0.5,-0.7,-14.2,-4.9,1.8,0,-0.9,-1.5,-6.8,-0.6,3.7,0,-0.3,1.2,12.7,0,1.7,-3.3,1,0.5,-5.1,0,2.1,-4.2,-0.9,-0.2,-1.8,0,6.9,-5.9,-0.5,3.6,4.4,0,12.8,-11.5,-0.3,4.9,5.1,0,15,-10.2,0.3,3.6,12.6,0,10.6,-4.1,0.5,2.8,15.1,0,7.4,-1.2,0.5,2.3,12.7
98,173,372,161,86,51,48,24,80,44,72,48,16,4,32,16,88,40,40,24,44,28,48,32,56,36,48,40,48,44,0,4.2,-1.2,0.3,1.8,8.4,-0.7,8.1,0,0.4,2.1,31.7,-0.6,4.1,0,0.1,0.4,13.9,0,0.4,-5.9,-0.6,-1.9,-13.4,0,0.7,-1.3,0.1,0.8,-3.3,-0.6,6.2,0,0.5,1.3,26.6,0,2.5,-5.4,0,-0.3,-12.2,0,5.5,-7.9,0,3,-10,0,10.9,-13,0,7.2,-5.1,0,16.4,-9.1,0.4,7,25.9,-0.7,15.5,-3.6,0.4,4,28.8,-0.9,10.9,-1.1,0.5,2.7,23
84,186,358,166,113,84,40,40,92,36,28,64,0,0,32,40,44,64,28,16,44,24,44,28,48,32,44,24,44,24,-0.4,6.3,-1,0.5,1.3,10.6,0,3.8,0,1,2.7,17.4,0,1.2,-3.1,0.6,1.4,1.4,-4.9,0,0,-0.8,-1.9,-20.5,-0.7,4.6,-1.6,-0.2,-0.1,3.7,0,1.1,-0.4,0.8,2,5.4,0,2.2,-3.3,0.1,-0.8,-7.5,0,7.4,-8.4,0.3,3,1.1,0,13.4,-9.6,0.8,5.6,16,0,17.2,-6.8,1,4.7,26.3,0,17.4,-5.2,0.9,3.6,26.8,0,13.1,-2.2,0.8,3,24
82,157,376,150,82,66,36,20,48,28,48,24,40,48,28,60,44,24,28,20,36,24,40,28,44,32,40,24,40,24,0,2.2,-0.6,0.6,0.6,2.6,0,7.1,-1.2,0.7,1.6,14.6,0,4.9,-1.2,0.5,0.9,9.6,-4.5,0.8,0,-0.4,-1.1,-8.3,-1.5,0.4,0,-0.1,-0.1,-3.4,0,6,-1.3,0.5,1.2,10.6,0,1.9,-3.7,0,-0.1,-1,0,5.2,-7.3,0,2.1,5.2,0,6.4,-8.2,0,4.2,-2.7,0,10.6,-5.6,0.3,2.9,9.9,0,9.6,-3,0.2,1.9,12.6,0,7.5,-2,0.3,1.7,10.6
85,197,379,182,117,56,40,24,48,24,60,32,40,52,36,16,84,32,0,0,0,0,32,20,48,32,48,28,52,28,0,5.5,-2.4,0.7,1.6,5.8,0,5.2,-1,1.2,1.3,10.8,-1.5,2,0,0.6,-0.6,4.2,-5,1.8,0,-0.9,-1.5,-7.4,0,3.2,-2.5,0.3,1.1,0.2,0,2.7,0,0.9,0.4,11.3,-5.9,0,0,0.1,0.3,-17.7,-8.4,0,0,0.4,3.9,-26.8,0,2.4,-9.9,0.8,7.2,-19.9,0,13.7,-7.7,0.7,3.5,19,0,13.5,-3.6,0.7,2,27.4,0,9.8,-1.4,0.6,1.6,23.8
84,139,363,184,82,62,48,24,44,28,0,0,36,56,56,24,40,24,24,12,32,20,48,32,44,28,44,24,44,24,0,7.7,-0.7,1,3,17.2,0,6.5,-1.9,0.5,1.9,10.2,-2.6,0,0,-0.5,-1.1,-9.8,-7.1,1.1,0,-0.6,-2.4,-15.1,0,4.4,0,0.7,2.1,12.3,0,2.7,-2,-0.1,0.4,1,0,1.6,-8.1,0.6,-0.6,-22.4,0,5,-13.5,1.1,7.9,-29.8,0,8,-8.8,1.1,7.1,-0.1,0,11.1,-5.5,0.6,3.4,10.1,0,10.3,-2.7,0.4,2.7,16.2,0,7.8,-0.8,0.3,1.7,15.4
85,128,377,151,76,72,36,36,72,40,64,44,0,0,40,24,72,44,32,20,44,24,52,36,44,36,44,40,48,40,-0.4,8.5,-0.8,0.3,0.8,13.5,-0.9,13.9,0,0.6,1.5,49.1,-0.5,8.5,0,0.2,0.7,26.6,-10.6,0,0,0.1,-1.3,-42.4,0,2.2,-3.2,0.1,-0.2,-3.2,-0.9,10.2,0,-0.1,1.3,35.8,0,3.8,-7.2,0.3,1.5,-9.8,0,7.5,-7.6,0.3,4.5,4.4,0,13.8,-4.5,0.5,6,31.3,-0.4,21.3,-2.8,0.4,4.3,44.8,-1.1,18.9,-0.4,0.3,2.8,40.6,-1.3,16.1,0,0.3,2.1,37.3
77,172,330,140,104,84,52,28,68,36,40,52,0,0,44,28,60,24,36,28,40,28,44,28,44,28,48,28,76,24,0,8.1,-0.7,1,0.7,19.9,0,5.5,0,1.4,0.8,18.7,-3.4,3.8,0,0.8,0.4,0.2,-6.1,0,0,-1.4,-0.8,-21.9,0,4.8,-2.5,0.6,0.5,6,0,4.1,0,1.2,0.4,12.3,0,2.7,-12.2,-1.3,1.2,-17.1,0,8.6,-12.6,-0.9,1.9,-2.9,0,12.3,-6.8,0.2,1,18.9,0,9.2,-2.9,0.6,0.4,16.2,0,8.3,-1.3,0.5,0.6,17.9,0,6.8,0,0.7,0.8,25.8
93,183,358,149,74,80,60,48,56,60,48,56,32,20,52,32,48,60,28,16,52,36,56,32,64,44,64,56,60,60,-0.7,8.2,0,1,-1,23.8,-2.6,8.3,0,1.5,0.4,18,-5.6,4.3,0,0.8,1.1,-3.1,0,1.3,-7.1,-1,0.5,-19.3,0,6.7,-0.8,-0.1,-1,16.8,-3.4,5.9,0,1.1,0.7,6,0,1,-8.8,-0.8,2.5,-23.2,0,14.3,-6.6,-0.4,3.3,23.9,0,25.9,-4.1,-0.3,0.8,66,-0.5,13.5,0,0.9,-0.5,42.8,-1.1,9.9,0,1,-0.5,30.3,-1.3,8.7,0,0.9,-0.4,24.1
74,133,370,163,71,60,40,20,48,28,48,32,32,48,0,0,48,28,24,12,28,16,40,24,40,36,40,20,44,24,0,4.1,-0.6,0.6,1.9,7.8,0,9.2,-1.4,1.3,3.8,19.8,0,5.1,-0.8,0.7,1.9,11.1,-6.7,1,0,-0.8,-2.9,-13.1,-0.7,0,0,0,0.1,-1.6,0,7,-1.1,0.8,2.9,15.1,0,1.3,-7.9,-0.4,-1.6,-12.7,0,2.9,-9,0,1.7,-12.2,0,7.3,-6.7,0.2,5,3.9,-0.5,20.9,-3.3,0.6,5.1,39.8,0,12,-1.2,0.5,3.1,23.1,0,8.6,-0.6,0.4,2.2,18.1
89,155,400,121,100,67,52,28,76,32,72,20,0,0,40,24,84,36,20,12,44,32,52,36,52,32,64,32,64,28,0,9.6,0,0.3,-0.7,24.9,0,13.4,0,1,0.6,50.9,0,8.1,0,0.7,0.6,29.1,-11,0,0,-0.6,-0.3,-39.6,0,3.9,-3.3,-0.2,-0.4,-1.4,0,10,0,0.8,0.6,42,0,0.9,-16.8,-0.6,2,-49.5,0,7.1,-29.3,-0.3,6,-48.8,0,12,-15.5,0.1,5,0.2,0,17.7,-3.9,0.6,1.6,38.2,0,17,0,0.4,0.6,54.4,0,14.1,0,0.5,0.5,45.1
89,180,412,198,108,74,44,28,56,48,68,52,0,0,40,28,56,52,36,24,52,36,60,40,56,36,52,40,52,48,0,6.9,-2.3,0.7,1.6,10.5,-0.6,16.3,0,1.5,3.5,45,-0.8,13.7,0,0.9,1.9,45.4,-10.6,0,0,-1.1,-2.5,-29.6,0,2,-7.2,0.7,-0.5,-13.2,-0.7,14.6,0,1.3,2.6,40,0,3.1,-11.4,-1.2,1.5,-21.8,0,12.3,-12.6,0.1,7.6,9.3,0,18.7,-8.7,0.5,7.9,44,0,18.7,-3,1,4.9,48.7,-0.4,17.9,-1.3,0.9,3.9,45,-0.7,15.4,-0.5,0.9,3.1,38.6
103,155,350,249,75,86,64,36,52,32,0,0,32,68,68,36,48,20,20,12,40,24,48,32,48,32,56,36,60,36,0,8.4,0,0.6,-1.5,26.8,0,5.3,-1.7,1,-0.6,10.3,-3.1,0,0,0.3,1.4,-9.3,-6.8,1.5,0,-0.7,0.8,-18,0,5.7,0,0.3,-1.3,19.3,0,1.4,-1.3,0.6,0.6,1.3,0,0.4,-11.1,-0.8,1.4,-30.6,0,3.9,-10.2,-0.6,0.8,-10.5,0,10.6,-15,-0.6,-1,-13.6,0,15.4,-11.3,0.2,-3.1,3,0,17.2,-7.8,0.7,-3.1,27.9,0,10.6,-2.6,0.9,-1.4,26.1
85,166,335,156,109,66,36,16,80,24,80,28,0,0,16,8,80,28,32,20,36,24,44,28,44,24,40,40,80,40,0,3,-0.8,0.4,1.5,4.3,0,7.3,0,1.4,2.3,29.2,0,5.3,0,1.1,0.8,21.2,-5.1,0,0,-0.9,-1.8,-20.4,0,0.5,-1.7,-0.4,0.5,-4.7,0,6.3,0,1.2,1.4,25.2,0,1.6,-6.4,-0.4,0.8,-16.7,0,3.1,-10.3,-0.7,4,-21.2,0,4.3,-11.9,-0.7,7.4,-16.7,0,11.9,-6,0.4,5.4,18.9,-0.7,10.1,-2.4,0.4,3,17.1,-0.7,6.9,0,0.3,1.7,26.9
88,170,389,144,106,77,40,20,36,44,40,48,0,0,32,20,36,44,40,24,40,28,44,28,44,28,48,40,48,44,0,3.5,-1.4,0.5,-0.9,4.5,-1.3,7.7,0,1.5,0.5,12,-3.2,7,0,1,1,8.3,-4.6,0,0,-0.8,0.9,-9.2,0,3.1,-3.4,-0.3,-1.1,-3.2,-2,7.3,0,1.1,0.6,9.9,0,3.7,-6.1,-1.3,1.1,-4.8,0,10.6,-14.8,-0.7,-1.1,-23.2,0,21.2,-20.7,-0.9,-3,-11.3,0,11.3,-7.7,0.5,-2.4,4.8,-0.4,10,-1.8,0.7,-1.2,20.5,-1.1,9.3,0,0.6,-0.9,21
81,162,352,154,100,79,68,20,100,36,24,12,0,0,60,36,76,28,24,16,40,24,44,28,48,32,48,28,48,24,0,8.1,0,0.9,-0.5,27.5,0,5.9,0,1.4,-1.2,29.5,0,0.9,-2.4,0.6,-0.7,-3.3,-7.1,0,0,-1.2,-0.8,-25.5,-0.5,5.2,0,-0.2,0.3,15.1,0,2,0,1.1,0.5,7.6,0,1,-5.4,-0.7,0.8,-15,0,3.7,-5.1,-0.2,2.2,-1.7,0,9.4,-6.3,0.2,3.4,10.6,0,14.7,-5.1,0.7,2.5,27.1,0,13.9,-2.5,0.6,1.4,30.8,0,10,0,0.7,1,24
84,136,356,159,85,88,48,36,56,44,48,48,16,8,44,24,60,44,32,20,48,28,52,32,52,32,48,36,52,44,-0.5,11.3,0,1,2.7,26.7,-1,12.1,0,1.7,1.6,32.6,-1.1,3.3,0,0.8,-1.2,6,0,0.7,-11.6,-1.3,-2.2,-34.3,0,5.5,-0.9,-0.1,1.9,10.5,-0.7,6.9,0,1.2,0.3,20,0,4.1,-10.9,0.3,-1.4,-21.8,0,9.8,-8.3,0.5,3.6,5.3,0,17.2,-6.3,1,4.5,33.4,0,14.3,-3,1,1.9,32.3,-0.4,13.3,0,1,2.1,31.7,-0.7,12.2,0,1,2,31
96,181,353,170,84,78,44,28,40,20,56,36,28,44,32,16,56,32,20,12,32,20,40,24,48,32,48,32,48,24,0,3.8,-1.7,0.7,0.8,4.9,0,6.8,0,1.5,1.5,13.6,-1.7,4.3,0,1.2,0.6,10,-4.7,1.1,0,-1.1,-1,-7.9,0,1.8,-2.3,-0.5,0.4,-2.2,-0.9,5.4,0,1.3,0.9,14.2,0,0.8,-5.5,-1.1,-1,-19,0,2.6,-6.8,-1,0.7,-17.6,0,6.5,-13.3,-0.4,3.4,-18.9,0,16.1,-10.8,0.3,3.5,8.4,0,14.5,-5.7,0.3,1.6,20,0,8.6,-1.5,0.3,0.7,17.3
90,172,297,209,103,89,56,28,48,32,12,40,0,0,60,24,24,28,16,8,28,20,40,28,44,24,56,36,60,36,0,7.8,0,1.2,-1.7,21.8,0,5.1,0,0.8,-1.1,12.2,-4.4,0.8,-0.8,0.2,0.9,-8.3,-6.7,0,0,-1,1.6,-17.4,0,7,0,1,-1.4,21,-1.4,2,-0.7,0.4,0.1,0.2,0,0.7,-12.4,0.3,2.8,-31.7,0,1.8,-10.7,0.2,3.5,-21,0,2.7,-8,0.3,3.1,-10.6,0,3.2,-4,0.3,0.6,-4.2,0,3.8,-2.2,0.3,-0.6,5.4,0,4.5,-1.1,0.6,-0.8,11.3
98,177,407,181,120,63,40,44,56,28,28,68,20,72,40,40,64,48,36,20,48,32,56,40,52,32,48,28,44,36,-0.7,9.2,-2.8,0.9,2.9,11.5,0,5.9,-1.7,1.2,1.8,13.5,0,0.9,-3.3,0.4,-1,-2.2,0,0.6,-7.8,-1,-2.1,-12.4,-0.9,7.3,-2.9,-0.1,1.8,7.9,0,1.3,-1,0.8,0.3,2.9,0,2.3,-5.4,-1.2,-2.1,-12.1,0,7,-11.9,-0.5,1.6,-11.7,0,11.1,-10.4,-0.8,1.1,4,0,14.7,-5.3,0.5,1,25.5,0,13.5,-3.6,0.6,0.8,23.8,-0.5,10.8,-2.6,0.8,1.6,17.6
93,177,353,139,98,61,48,28,56,24,56,36,0,0,40,20,64,24,28,20,36,20,44,24,56,40,56,36,56,32,0,5.5,-1,-0.1,1.8,11.8,0,8.2,0,1.1,2.5,22.9,-0.5,3.1,0,0.4,0.7,8.1,-6.9,0,0,-0.3,-2.2,-19.3,0,1.9,-1.4,0.4,0.7,1.6,0,5.7,0,0.2,1.5,18.2,0,1.3,-6.3,-0.2,-1,-17.1,0,4.2,-7.7,-0.2,1.6,-12.5,0,6.9,-8.4,-0.2,3.3,-3.3,0,12.1,-4.9,0.9,1.6,22.1,0,15.7,-2.7,0.8,2.2,38,0,13.2,-1.1,0.8,2,34.7
80,144,369,224,80,98,48,28,40,24,0,0,36,52,48,28,32,24,24,16,32,20,40,24,44,28,44,28,44,28,0,8.1,-1.7,0.4,-0.6,16.7,0,5.3,-2.7,1.6,-1,5.2,-4.6,0,0,1.1,-0.4,-10.1,-6.6,1.7,0,-1,0.2,-11.5,0,5.9,-1.1,-0.3,0.3,12.6,0,1.8,-2.7,1.3,-0.8,-3.6,0,0.9,-8.8,-0.5,1.3,-21.8,0,3.5,-11.9,-0.3,1.6,-20.5,0,8.1,-15.8,-0.2,1.1,-21.7,0,11.4,-14.7,0.5,0.6,-16.1,0,12.4,-9.6,0.9,0.2,2.3,0,10.2,-4.7,1,0.2,10.2
85,177,368,250,100,72,100,28,80,40,60,48,0,0,36,20,60,44,0,0,24,16,20,12,84,48,84,40,80,36,0,4,0,1,1.3,20,-0.9,11.7,0,1.6,1.9,45.9,-3,8.6,0,0.7,0.6,21,-7.6,0,0,-1.1,-1.6,-28.8,0,3,-2.9,0.6,0.5,2,-1.8,10.1,0,1,1.2,28.2,-13.6,0,0,-1,1.7,-43.5,0,1.7,-17.5,-0.5,3.4,-47,0,1.3,-11.9,-0.3,3.8,-32,0,3.1,0,0.6,2.5,13,0,10.3,0,0.5,1.1,43.2,0,10.4,0,0.4,0.8,41.6
67,153,313,137,54,98,48,28,44,24,24,12,20,48,48,28,36,20,20,12,32,20,40,24,36,24,40,24,40,24,0,9.8,-0.6,0.4,0.7,22.9,0,10.7,-1.3,1.3,1.7,22.8,0,1.3,-2.6,0.9,1.1,-0.7,-10.1,0.8,0,-0.8,-1.2,-23.4,0,5,-0.5,-0.3,-0.3,11.6,0,6,-1.5,1,1.4,9.6,0,1.1,-9.7,0.3,1.3,-20.2,0,4.4,-7.6,0.3,3.9,-5.1,0,12.7,-8.3,0.5,4.8,15.5,0,12.3,-6.1,0.6,2.8,9.9,0,12.3,-4.3,0.6,2.2,16.9,0,10.9,-2,0.6,1.7,18.2
74,129,330,161,79,78,48,28,36,20,28,56,32,52,48,28,0,0,24,68,20,72,28,16,24,12,36,20,40,24,0,7.9,-2.2,0.8,0.5,15.4,0,2,-1,1.3,1.1,1.8,-6,1.4,0,0.4,0.5,-13.7,-5.3,1.6,0,-1.1,-0.6,-10.2,0,6.6,-1.9,0.4,-0.3,12.8,-1.4,0,0,1,0.7,-3.3,-7,1.1,0,0.2,0.9,-21.1,-6.2,1.2,0,0.3,1.6,-19.8,0,3.6,-9.9,0.7,1.8,-16.7,0,1,-7,0.9,0.8,-14.2,0,2.9,-4.5,0.7,0.5,-5.6,0,2.7,-2.2,0.7,0.2,0.6
69,157,326,161,90,86,36,20,32,16,0,0,20,40,32,16,24,12,24,16,32,20,40,24,44,28,36,24,36,24,0,3.2,-1.1,0.5,1.6,4.4,0,2.6,-2.2,1.7,1.6,0.2,-1.2,0,0,1.2,0.1,-4.3,-2.9,1.7,0,-0.9,-1.3,-3.5,0,2.1,0,-0.4,0.9,3.3,0,1.2,-1.4,1.3,0.4,-1.1,0,1.1,-4.5,-0.7,0.5,-5.9,0,5.4,-4.9,-0.6,4,2.8,0,10.3,-4.6,-0.4,5.7,16,0,12.7,-4.1,0.9,3.2,23,0,6.4,-3.4,0.7,2,4.1,0,3.8,-2.2,0.7,1.3,3.8
105,149,362,143,82,80,44,36,40,24,24,12,48,48,72,52,48,36,32,20,36,24,40,28,44,32,36,36,40,36,-0.6,6.4,-0.6,0.5,1.5,11.9,0,6.4,-6,1.2,2.3,-1.6,0,0.8,-6.6,0.8,0.8,-24.1,-6.3,3.1,0,-0.7,-2,-5.2,-1.1,3.8,0,-0.3,0.5,12.3,0,3.3,-6,1,1.5,-7.7,0,2.7,-8.5,-0.5,-1.6,-17,0,6.4,-12.5,0.1,-0.5,-17.1,0,7.7,-14.8,0.4,1.9,-23,0,10.2,-13.4,0.6,1.9,-12.4,-0.4,11.2,-8.2,0.6,2.4,-3.1,-0.6,8.7,-3.9,0.5,2.1,6.1
95,145,376,202,92,76,48,28,52,48,32,68,24,12,48,28,56,68,32,20,40,24,60,24,52,36,44,48,44,48,0,8.3,-1.4,-0.2,0.8,17.1,-2.6,2.8,0,0.8,-0.5,2.6,-6.2,2.9,0,0.7,-1,-12.7,0,1,-5.3,-0.7,-0.5,-15.7,0,5.7,-2.8,0.9,0.7,7.5,-3.3,3.6,0,0.6,-0.2,2.8,0,3.2,-6.4,-0.8,1.2,-14.1,0,5.5,-4,-0.7,3.8,1.4,0,5.6,-5.4,0.6,7.1,9.3,0,16.9,-5.3,1,5.2,33.3,-1.7,18.4,-3.4,0.9,2,32.3,-2.4,9.5,0,0.7,0.2,17.6
99,154,329,172,95,94,48,40,44,28,28,16,48,48,60,44,32,16,24,16,44,28,44,28,44,32,48,32,44,28,-0.8,7.9,0,0.8,0.9,18.1,0,3.1,-5.7,2,2.8,-9.1,0,1.5,-7.5,1.2,1.8,-20.4,-5,3,0,-1,-1.3,-2.8,-1.5,7.1,0,-0.2,-0.9,19.5,0,1.5,-5.5,1.1,2,-13,0,0.9,-5.7,0.1,0.5,-19.5,0,2.9,-9.3,0.1,3.4,-17.8,0,8,-12.7,0.3,4.4,-17.9,0,6.2,-11,0.6,2.8,-17.2,0,5.9,-7.7,0.6,2,-9,0,4.3,-5.2,0.6,1.7,-7.2
79,170,364,172,106,69,40,24,48,28,48,32,24,56,40,24,48,32,12,4,36,20,40,24,40,24,48,28,48,24,0,6.4,-1.9,0.8,2.2,9.4,0,6.4,-0.9,1.6,2.1,14.8,-0.7,2.6,0,0.9,0.5,5.5,-5.8,1.8,0,-1.3,-2.4,-11.8,0,3.3,-1.6,-0.2,1.2,3.4,0,3.4,-0.6,1.1,1.5,7.7,0,0.4,-6.9,-0.6,0.7,-21.8,0,3.8,-15.8,-0.1,7,-27.9,0,11.1,-15.9,0.2,11.9,-6.4,0,12.7,-7.4,0.8,6.1,12.1,0,10,-2.6,0.7,3.4,20.4,0,8.2,-0.8,0.7,2.7,18.8
86,153,308,214,87,94,52,44,48,36,0,0,20,12,52,44,24,24,32,20,36,24,40,24,44,28,40,40,48,44,-0.8,11.2,0,1,-2.1,28.3,-0.5,7.8,0,1.2,-1.7,18.2,-3.6,0,0,0.8,0.4,-9.3,0,0.6,-9.3,-0.9,1.8,-23.5,-0.5,7.4,0,-0.1,-1.1,18.7,-0.4,2.4,-0.6,0.9,-0.8,1.5,0,3.8,-14.1,0,2.8,-25,0,8.6,-18.5,0,3.4,-21.6,0,10.8,-14.1,0,1.8,-6.6,0,10.3,-9.9,0.3,-1.6,-1.1,-0.4,16.2,-5.1,0.3,-2.7,20.9,-0.7,14.3,0,0.4,-3.1,33.5
91,224,331,159,122,102,48,28,48,28,56,44,36,52,32,16,52,28,32,24,40,28,40,24,40,44,40,44,40,20,0,7.2,-2.8,0.9,0.8,12.2,0,9,-1.4,1,0.9,20.2,-0.8,3.7,0,0.4,0.3,9.2,-7.1,1.8,0,-1.1,-0.4,-12.4,0,2.6,-2.8,-0.3,-0.6,-2,0,5.7,0,0.9,0.4,14.8,0,2.2,-11.3,0.2,0.9,-28.1,0,3.5,-10,0.1,1.2,-23,0,8.9,-7.7,0.1,1.4,0.9,-0.5,8.5,-3.9,0.3,0.5,8.7,-0.4,8.7,-2.4,0.4,0.5,12.2,0,7.3,-1.2,0.5,0.4,12.5
93,163,348,229,104,86,60,36,84,32,32,20,0,0,44,28,76,24,0,0,24,76,32,24,44,28,56,28,56,28,0,7.8,0,0.9,0.3,23.4,0,7.6,0,1.7,1.3,31.9,0,1.8,-2.3,0.8,1.3,0.1,-7.2,0,0,-1.4,-0.7,-21.6,0,4,0,-0.5,-0.5,8.8,0,4.6,0,1.4,0.9,17.4,-17.2,0,0,-1,1.5,-48.1,0,1,-15.5,-0.9,3.1,-28.7,0,5.1,-17.5,-1,2.6,-33.9,0,10.4,-6.4,0.6,1.5,8.8,0,13.1,-3.3,1.1,0.9,29.4,0,11,-1.7,1.3,0.6,27.4
80,149,348,136,99,87,56,28,56,28,20,8,0,0,48,36,28,12,20,8,24,16,48,16,52,28,60,36,72,36,0,11.9,0,1.7,1.2,33.3,0,5.1,0,1.7,0.7,14.2,0,0.4,-7.5,0.4,-0.5,-25.1,-8.2,0,0,-2,-0.9,-22.9,-0.4,9.4,0,0.9,0.7,22.3,0,1.2,-1.9,1.5,0.3,-3.3,0,0.7,-11,0.2,-0.8,-30.1,0,1.5,-6.5,0.1,2.1,-16.4,0,2.1,-3.3,0.3,2.4,-1.6,0,2.6,-1.7,0.9,0.3,3.7,0,4.8,0,1,0.4,14.4,0,5.4,0,1,0.4,19.4
90,156,389,166,105,72,40,40,60,36,28,16,0,0,56,40,64,44,32,20,44,28,52,32,60,40,52,32,48,24,-1.5,10.6,0,0.7,2.9,19.4,0,9.1,0,0.6,2.3,27.3,0,2.5,-1.8,0.3,-0.7,2.1,-9.8,0,0,-0.6,-2.4,-21.5,-2,6,0,-0.1,1.7,14.4,0,4,0,0.3,0.9,12.8,0,4.5,-7.9,0.4,-1.8,-18,0,7.8,-7.2,0.5,0.7,-0.1,0,8.8,-6.9,0.7,2,7.7,0,11.7,-3.9,0.3,2.3,27.3,0,12.6,-1.7,0.4,2.3,29.7,0,11.1,0,0.4,1.9,26.6
81,173,337,154,100,93,48,28,52,28,52,20,28,60,20,8,56,28,28,16,40,28,44,28,52,32,48,28,52,28,0,4,-1.9,0.4,0.6,6.2,0,8.4,-1.3,0.9,1,20,0,4.4,0,0.6,0.5,11.4,-6.4,1.3,0,-0.6,-0.7,-14.8,0,0.5,-1.9,-0.1,0.3,-5.2,0,6.6,0,0.7,0.7,18.4,0,0.7,-5.5,-0.3,-0.4,-14.5,0,1.5,-6.9,0.1,0.9,-14.9,0,3.2,-7.1,0.4,1.3,-10,0,8.4,-4.5,0.5,0.5,11,0,11.7,-3.9,0.4,0.5,19.5,0,11.7,-2.7,0.4,0.4,25
90,135,354,153,70,73,44,24,64,24,64,36,0,0,32,16,64,28,36,24,36,24,40,24,48,28,44,24,40,20,0,5.6,-0.4,0.8,1.6,12,0,7.7,0,0.5,1.8,24.6,0,2.7,0,-0.5,0.1,8.6,-6.6,0,0,-0.6,-1.5,-15.8,0,1.9,-0.7,0.5,0.7,2.1,0,4.9,0,0.1,0.9,15.6,0,5.1,-14.7,0.4,2.1,-29.1,0,8.5,-16,0.7,5.3,-23.1,0,9.7,-12.4,0.9,5.9,-7.8,0,7.5,-4.9,0.7,2.3,7.3,0,7.7,-2.4,0.5,1.9,12.1,0,7,-0.8,0.4,1.4,12.4
78,157,334,130,108,87,40,20,40,36,44,16,40,56,36,16,44,24,0,0,16,8,40,28,44,28,44,28,44,28,0,5.1,-1.5,0.5,0.2,7.5,-0.5,7.2,-2,1.2,0.3,10.4,0,2,0,0.7,-0.3,4.4,-6.3,1.7,0,-1.1,-0.6,-11.7,0,1.7,0,-0.1,0.2,3,0,4.6,-1.3,1.2,0.4,7.5,-5.6,0,0,-0.9,-0.4,-11.2,0,1,-4.8,-0.6,1.1,-10.7,0,3.3,-4.9,-0.6,1.1,-3.2,0,8.1,-3.8,0.6,0.6,9.5,0,9.1,-3.1,0.8,0.8,13.2,0,7.6,-2.4,0.8,0.8,11.5
98,158,358,154,114,72,40,20,56,32,80,44,44,64,12,24,64,36,28,16,36,20,44,24,56,36,56,32,52,28,0,3.8,-2.4,0.6,1.4,1.9,0,7.3,-1.6,1.4,1.3,16.9,0,5.1,0,0.9,0.3,20.4,-5.4,1.8,0,-0.9,-1.2,-10.1,-0.5,0.5,-2.5,-0.2,0.8,-6.2,0,5.9,-0.8,1.1,0.6,17.6,0,1.2,-4.5,0.5,-1,-4.8,0,2.5,-4.8,1,1.4,-9.9,0,3.5,-7.9,1.1,2.5,-14.4,0,6,-4.9,1,1.1,6.1,0,8.6,-3.7,0.9,0.8,15.9,0,9.1,-2.6,0.7,0.8,17.9
81,105,362,197,70,87,44,24,36,20,28,44,44,48,44,24,0,0,0,0,40,28,40,28,44,28,40,24,44,28,0,6,-2,1,2,9.2,0,1.9,-1.7,0.9,0.9,-0.6,-4.5,0.4,0,-0.5,-1.5,-8.5,-4.6,2,0,-1.1,-1.8,-4.8,0,6.1,-1.2,-0.2,1.8,11,-1.8,0,0,0.5,0.5,-5.7,-4.3,0,0,-0.5,-0.3,-11.1,0,6.4,-7.1,0.8,3.5,-1.4,0,9,-9.3,0.7,3.8,-2.4,0,7.4,-6.8,0.5,2.6,-2.8,0,6.4,-4.8,0.4,2.2,-0.6,0,5.3,-2.9,-0.3,1.6,3.5
90,169,357,151,102,68,40,40,44,28,24,12,48,52,52,28,0,0,32,20,44,24,48,28,44,28,48,28,44,24,-0.4,6.5,-1.3,0.8,2.2,10,0,3.3,-2.1,1.1,1.6,2.2,0,0.7,-3.5,0.6,-0.6,-10.4,-5,1.6,0,-0.8,-1.8,-7.2,0,5.9,0,-0.2,1.5,15.3,-2,0,0,0.8,0.4,-8.4,0,1.2,-3.1,0,-0.6,-6.1,0,10.1,-6.4,0,3.5,6.9,0,12.2,-5.9,0,2.7,16.3,0,11.2,-4.4,0,2.1,12.3,0,9.2,-3.1,0,2,14,0,9.9,-2.7,0,2.3,14.7
85,151,383,163,64,73,36,36,48,24,28,64,0,0,32,40,76,16,28,16,44,28,52,36,52,36,44,28,44,28,-0.5,6.8,-1.5,0.7,2.6,9,0,3.7,0,0.6,2.5,8.8,0,0.8,-3.2,0.1,-0.2,-0.7,-5.4,0,0,-0.3,-2,-11.8,-0.9,5.2,-1.1,0.2,1.1,6.2,0,0.7,0,-0.1,0.9,2.6,0,1.4,-3.1,-0.1,-0.9,-8,0,6.5,-7.6,0.2,2.7,-2.4,0,11.1,-9.4,0.3,3.6,10,0,7.7,-5.6,0.5,2.5,6.6,0,6.6,-3.7,0.4,2.4,5.7,0,5.9,-2,0.3,2.2,8.1
79,152,368,156,97,68,44,24,84,28,76,32,16,52,24,12,80,32,28,16,48,36,56,40,52,32,48,28,52,28,0,4.4,-1.8,0.8,1.2,6,0,7.8,0,0.6,2.1,32.7,0,4.7,0,0.4,0.8,17.8,-5.8,0.5,0,-0.6,-1.6,-13.5,0,1,-3.1,0.8,0.5,-6.8,0,6.6,0,0.3,1.1,26.4,0,1.6,-4.9,-0.2,0.4,-12.5,0,4,-8.2,-0.1,3.4,-8.4,0,11.1,-7.6,-0.1,5.1,14.3,0,11.8,-3.3,0.6,3,24,0,11.2,-1.9,0.5,2.7,23,0,8.7,-0.7,0.5,2,21.4
61,320,397,175,155,62,40,20,44,28,44,24,16,48,0,0,44,24,20,12,36,20,48,28,48,28,48,28,48,28,0,4.4,-0.5,-1,1.9,8.3,0,10.2,-1.1,-1,3.5,21.6,0,5.9,-0.5,0.4,1.6,12.6,-6.5,1.2,0,0.3,-2.7,-13.4,-1.8,0,0,0.1,-0.1,-4.6,0,8.2,-1,-0.2,2.7,17.4,0,1.2,-7.7,-0.3,0.3,-15.7,0,3.7,-2.1,-0.3,4.4,3.3,0,10.9,-1.6,-0.2,6.5,24.9,0,15.1,-1.5,-0.3,5.1,35.3,0,12.4,-0.9,-0.3,3.9,29.2,0,9.6,-0.5,-0.4,2.9,22.7
90,174,380,158,72,53,48,24,100,28,80,48,16,48,36,20,80,20,36,20,44,32,44,28,44,28,40,36,40,44,0,4.1,-0.4,0.6,0.9,9,0,4.8,0,0.9,3,24,0,1.3,0,0.3,2.1,5.2,-4.3,0.4,0,-0.7,-2,-9.1,0,1.9,-1.4,0.4,-0.5,0.1,0,2.6,0,0.6,2.4,10.4,0,1.1,-5.3,0.1,0.7,-14,0,3.5,-9.1,0.1,2.3,-17.7,0,7.5,-11.1,0.4,4.6,-12.3,0,13.2,-8.9,0.6,4.3,5.9,-0.6,10.4,-4.2,0.5,3.3,10.4,-0.6,6.7,-1.2,0.4,2.3,10.1
79,141,423,138,79,63,40,20,44,24,44,28,20,48,32,16,40,20,28,16,40,24,44,28,40,28,44,28,44,28,0,3.8,-1.2,0.2,0.7,6.4,0,5.4,-1,0.6,0.8,11,-0.4,2.6,0,0.5,0.4,5.5,-4.4,1.2,0,-0.3,-0.7,-7.6,0,1.5,-1.1,-0.2,-0.2,0.9,0,3.7,0,0.4,0.4,7.4,0,1.4,-3.2,0.3,0.2,-7.7,0,2.9,-4.6,0.3,0.2,-5.2,0,5.4,-6.4,0.4,0.7,-2.2,0,5.1,-5.1,0.7,0.4,-1,0,6.8,-3.2,0.5,0.5,8.5,0,5.8,-1.6,0.3,0.5,9.9
83,158,361,142,96,73,44,24,44,24,0,0,40,52,44,24,40,24,32,20,40,24,48,32,48,32,40,24,40,24,0,8.7,-1.6,0.6,1.4,15.9,0,7.6,-1.5,0.6,0.4,13.4,-1.8,0,0,0.1,-1.1,-2.8,-8,1.5,0,-0.6,-0.8,-14.6,0,5.1,-0.8,0.6,1.2,9.8,0,3.5,-1,0.4,-0.5,4.8,0,1.8,-6.5,0.2,-0.8,-11.5,0,4.2,-9.2,0.6,1.7,-13.6,0,8.3,-10,0.6,2,-4.1,0,12.8,-8.4,-0.3,0.1,8.9,0,13.4,-5.7,0.3,0.3,12,0,11.2,-2.6,0.4,0.6,16.2
84,163,375,146,104,78,76,32,52,32,36,12,0,0,64,40,52,36,24,12,32,20,40,24,44,28,48,32,52,28,0,6.1,0,0.7,0.6,23.1,0,5.5,0,0.8,0.5,14.3,0,0.7,-3.1,0.7,-0.3,-6.8,-6,0,0,-1,-0.4,-21.6,-0.4,4.1,0,0.5,0.2,12.7,0,2.2,-1.9,0.8,0.2,1.6,0,0.6,-6.6,-0.6,0.5,-19.1,0,2.4,-7.4,0.1,1.3,-13.9,0,5.8,-8.6,0.5,1,-10.7,0,6.8,-6.8,0.7,0.3,-1.4,0,7.1,-3.6,0.6,0.3,9.1,0,6.5,0,0.5,0.4,16.9
78,174,371,152,83,68,76,32,56,32,0,0,0,0,72,32,48,32,20,12,44,28,68,48,56,36,56,36,84,32,0,14.3,0,1.1,2.5,54.3,0,11.6,-0.7,1.8,2,31.3,-4.7,0,0,0.7,-0.5,-15.9,-12.9,0,0,-1.4,-2.2,-41.2,0,8.8,0,0.2,1.5,31.6,0,4.4,-1.9,1.2,0.7,7.5,0,0.4,-13.3,-0.4,-0.1,-36.8,0,3.4,-4.6,-0.2,6.7,-1.8,0,12.2,-3.4,-0.1,5.5,38,0,10,-1.9,1.1,2.3,26.1,0,10.3,-0.7,1,1.9,27.7,0,9.8,0,0.9,1.6,41.1
86,147,362,117,79,71,52,32,72,28,64,48,0,0,40,28,72,28,20,12,36,24,44,28,48,28,52,32,56,32,0,6.2,-1.8,0.6,0.8,12.5,0,8.6,0,0.2,0.9,30.9,-0.9,5.2,0,-0.8,0.2,15.4,-6.9,0,0,-0.5,-0.8,-17.9,0,2.9,-3.7,0.7,0.6,-3,0,5.9,0,0.3,0.3,21.2,0,0.6,-7.2,0.1,-1.3,-25.3,0,4,-10.9,0.1,-0.6,-27.6,0,7.6,-11.4,0.2,-0.8,-15.2,0,8.6,-4.5,0.4,-1.4,10.7,0,9.9,-2.3,0.5,0.1,21.1,0,9.6,-0.6,0.5,0.4,25.8
72,204,360,155,80,71,80,28,44,24,36,40,0,0,64,24,48,28,24,72,32,20,40,24,52,28,52,32,52,28,0,5.8,0,0.5,1.7,23.2,0,9.1,-0.8,1.1,2,19.6,-0.5,3.6,-1.4,0.6,0.5,4.8,-7.6,0,0,-0.8,-1.8,-28.8,0,1.2,0,-0.3,0.6,3.8,0,6.7,-0.7,0.8,1.2,15.6,0,0.9,-9.1,-0.4,-0.2,-18.2,0,2,-8,-0.1,2.2,-8,0,2.9,-4.5,-0.4,3.6,-1.4,0,6.4,-1.5,0.6,2.3,15.1,0,10.5,-1.3,0.5,2,26.3,0,11.1,-0.7,0.5,1.8,28.4
87,196,370,165,72,69,44,24,76,28,76,20,16,52,40,24,84,24,32,20,36,20,52,32,56,40,52,36,52,32,0,5.3,-1.8,-0.3,2.2,8,0,8,0,-0.1,2.1,30.4,0,2.9,0,0.5,0.2,11,-7,0.4,0,-0.3,-1.9,-16.5,0,1.9,-2.5,0.3,1.3,-2.2,0,5.2,0,-0.2,0.6,21.8,0,2.2,-9.3,-0.4,1.1,-24.4,0,4.1,-11.7,-0.8,5.2,-25.4,0,7.6,-9.9,-0.6,8.1,-0.1,0,19.5,-6.5,-0.1,4.8,41.6,0,16,-3.7,-0.1,3.4,34.2,0,10.2,-1.1,-0.1,2.1,24.6
91,198,402,254,143,82,60,32,52,36,20,76,32,56,56,32,36,28,20,8,40,28,48,32,48,28,48,32,52,32,0,8.8,0,1,0.1,26.4,0,5.6,-2,0.8,0.7,13.2,0,0.7,-5.5,0.2,0.7,-12.8,-6.3,1.2,0,-0.7,-0.7,-13.2,0,6.3,-1.1,0.9,-0.6,16.5,0,0.9,-3.7,0.2,1.3,-3.9,0,0.5,-8.6,0.5,1,-28.7,0,1.8,-9.5,0.5,2.9,-19.2,0,5.8,-11.9,0.6,4,-7.5,0,6.7,-8.3,0.6,2.5,4.9,0,8.5,-6.1,0.6,1.5,12.3,0,7.1,-3.3,0.6,1.1,15
102,148,350,168,111,74,56,40,40,28,24,12,36,64,84,44,40,12,32,20,48,28,52,36,52,36,48,32,52,32,-0.4,7.7,0,0.7,2.1,21.2,0,2.6,-4.5,1,1.8,-7.4,0,0.6,-8,0.6,-0.4,-29.7,-4.8,1.2,0,-0.8,-1.9,-11.3,-0.4,6.8,0,-0.3,1.1,28.2,0,0.9,-5.1,0.8,0.8,-12.4,0,1.5,-5,-0.5,2.1,-8.6,0,5.1,-5.3,-0.1,5.6,4.8,0,17.9,-9.5,0.3,9,29.4,0,22.4,-12,0.5,6.8,29.4,0,16.8,-8.9,0.4,4.3,15.4,0,10.5,-4,0.5,3,15.3
80,163,364,169,118,78,44,24,60,24,0,0,16,48,40,24,32,16,28,16,40,24,48,32,48,28,44,24,48,28,0,5.1,-0.6,0.7,1.4,10.8,0,3,0,1,1.1,9,-2.3,0,0,0.5,-0.7,-4.6,-3.9,0.4,0,-0.5,-1.3,-8.2,0,3.5,0,0.4,0.9,7,0,0.7,0,0.3,0.4,1.1,0,1.8,-5.6,-0.3,0.5,-13.1,0,3.9,-6.4,0.1,3.8,-6.2,0,9,-6.6,0.1,4.6,11.1,0,9.9,-4,0.5,3.2,16.5,0,7.6,-1.7,0.4,2.2,13.7,0,5.3,0,0.4,1.5,12.7
82,133,399,162,101,55,72,24,36,20,0,0,20,48,84,28,28,16,28,16,40,16,48,36,44,28,44,28,40,24,0,6.3,0,0.9,1.3,22.6,0,4.4,-2.4,0.9,1.3,2.7,-3.1,0,0,0.2,-0.1,-13,-5.4,1,0,-0.9,-0.9,-9.8,0,4.2,0,0.6,0.5,17.6,0,1.2,-2.8,0.4,0.4,-5.1,0,1.5,-6.5,0.4,0.3,-18.7,0,1.9,-7.7,0.5,3.2,-16.2,0,6.6,-7.4,0.5,2.7,-1.9,0,8.1,-6.2,0.5,1.8,3,0,6.4,-4,0.5,1.6,4.4,0,5.4,-2.1,0.5,1.4,5.8
104,0,372,159,117,64,88,36,48,24,32,20,28,64,88,44,36,20,28,12,44,24,44,28,44,28,40,24,48,24,-0.6,5.4,0,0.7,1.5,23.1,0,3.2,-2.6,0.4,1.4,0.4,0,2.4,-5.2,0.4,0.2,-15.9,-4,1,0,0.4,-1.5,-9.8,-1.3,4.9,0,-0.5,0.3,20,0,2.5,-3.4,-0.3,1.2,-8.4,0,1.6,-4.1,-0.1,0.6,-6.8,0,2.8,-2,-0.2,2.1,7.8,0,9.8,-7.8,-0.1,3.5,4.4,0,12.9,-9.4,-0.5,2.1,-3.6,0,9.5,-4.3,-0.4,2.2,5.3,0,5.6,-1.4,-0.3,1.7,9.5
83,174,381,125,83,73,56,36,56,44,60,52,0,0,36,12,60,44,20,12,32,20,48,32,48,28,52,28,56,28,0,5.2,-0.8,0.7,1.4,13.4,-1,12.7,0,0.8,1.6,34.5,-1.3,7.9,0,0.4,-0.4,21.9,-8.9,0,0,-0.7,-1.5,-21.3,0,0.8,-2.4,0.3,0.8,-4.8,-1.2,10.1,0,0.6,0.8,29.1,0,1.1,-9.7,-0.3,0.7,-26,0,3,-7.7,0.1,2.4,-13.6,0,6,-7,0.3,3.2,1.8,0,12.4,-3,0.5,0.9,24.3,0,13.9,-1.4,0.5,1,33.9,0,12.3,0,0.4,1.1,34.4
81,184,386,153,89,68,40,24,76,24,72,28,28,48,28,12,72,28,24,16,28,16,36,20,48,32,52,32,52,28,0,4,-1.7,0.5,1.2,5,0,6.7,0,0.9,1.9,25.4,0,3.3,0,0.5,0.7,11.8,-5.3,0.7,0,-0.7,-1.5,-10.7,0,0.7,-1.8,-0.1,0.4,-2.7,0,4.8,0,0.6,1.3,17.2,0,1.3,-9,0,-1.1,-27.3,0,2.6,-10.9,0,0.9,-29.1,0,3.4,-10,0,1.3,-19.9,0,5,-3.8,0.5,1.6,2.9,0,7.2,-2,0.5,2.2,14.7,0,6.3,-0.5,0.5,1.9,15.4
94,148,382,147,100,72,60,20,40,40,36,44,24,12,36,20,36,48,32,16,40,24,48,36,36,44,44,44,68,48,0,3.4,0,0.4,1.3,10.2,-1.3,6.1,0,1,0.6,10.7,-1,2.8,0,0.9,-0.7,3.6,0,0.8,-4.5,-0.5,-0.7,-8.1,0,0.7,-0.4,-0.3,0.8,0.8,-1.1,4.4,-0.7,0.8,-0.4,5.7,0,2.3,-6.8,-0.5,-0.4,-18.1,0,3.3,-9.9,-0.1,2.2,-19.1,0,7.9,-8.3,0.3,2.8,-2.6,-0.9,10.9,-3,0.5,1.4,12.6,-1.3,7.4,0,0.4,1,14.4,-1.2,5.7,0,0.4,0.7,17.7
84,145,370,143,73,76,64,40,52,20,0,0,0,0,72,32,0,0,20,8,28,16,36,20,44,28,44,28,56,32,-0.6,6.9,0,0.8,1.8,21.4,0,4,0,0.7,0.9,10.4,-2.9,0,0,0.3,-0.9,-9.2,-5.1,0,0,-0.5,-1.3,-16.3,0,5,0,0.4,1.2,18,0,0,0,0.3,-0.1,0,0,0.5,-7.3,0.2,-0.5,-21.4,0,0.7,-6.7,-0.4,1,-16.5,0,2,-8,0.3,2,-15.6,0,4,-5.1,0.4,0.9,-5.4,0,5.8,-2.6,0.4,1.3,6,0,6.3,-0.6,0.4,1.4,16.4
91,137,387,188,97,76,60,40,48,32,0,0,44,60,56,32,36,28,0,0,52,40,52,36,52,36,52,36,56,36,0,10.1,-1.7,0.7,0.3,26.9,0,6,-2.8,0.9,0.6,7.7,-6.9,0,0,0.5,0.6,-20.7,-7.6,1.9,0,-1,-0.5,-14.1,0,8.3,0,-0.1,-0.3,23.2,0,1.5,-3.6,0.5,0.6,-5.9,-8.5,0,0,-0.3,0.5,-25.5,0,5.3,-8.5,0.1,0.9,-5,0,12.3,-10.2,0.1,1.1,7.5,0,11.8,-8.3,0.1,0.8,7.4,0,8.3,-5.2,0.2,0.5,7,0,7,-2.5,0.2,0.3,13.1
99,164,381,190,92,61,56,48,48,48,40,48,28,92,32,52,44,48,36,24,44,28,56,36,48,48,56,48,56,52,-0.7,7.8,-1.2,0.9,1.3,19,-1.6,15.8,-2.6,1.8,3.9,30.5,-0.8,8.4,-2.4,1.3,2.7,10.5,0,1.2,-11.8,-1.3,-2.6,-21,0,1.1,-0.7,-0.4,-0.9,3.7,-1.2,12,-2.3,1.5,3.3,17.2,0,3.5,-13.9,-0.8,1.6,-21.3,0,4.6,-10.4,-0.3,4.4,-12.7,0,11.8,-7.6,0.3,11,17.8,-0.9,23.1,-2,0.7,6.4,51.2,-1.6,18.1,0,0.6,2.9,48.7,-1.5,13.2,0,0.6,1.4,34.8
101,165,355,203,115,84,48,44,60,28,84,36,16,72,36,36,56,24,32,20,36,24,44,28,44,48,48,48,52,48,-0.7,5.5,0,0.6,1.2,12.4,0,6.4,0,1.4,1.8,19.2,0,0.8,0,0.8,0.7,3.3,0,0.6,-5.6,-0.9,-0.9,-10.5,-0.6,2.5,-0.8,0.4,0.5,2.7,0,3.1,-0.6,0.9,0.5,7.8,0,1.9,-5.1,-0.9,-0.5,-14.3,0,2.1,-5.7,-0.7,2.2,-13.4,0,7,-8.5,-0.6,9.2,-1.6,-1.8,29.2,-5.2,1.1,8.4,51.7,-1.7,19.1,-1.9,1.1,4.5,40,-1.1,10.4,-0.6,0.8,2.4,24.7
132,184,390,159,103,53,44,36,48,36,24,92,64,80,44,40,40,12,112,92,136,36,88,32,52,24,52,24,48,20,-0.4,7.2,-2.9,0.8,3.7,6.3,0,3.4,-1.8,0.9,0.6,0.6,0,0.9,-6.9,0.4,-3.2,-10.5,-4.8,2.3,0,-0.8,-2,-4.2,-0.6,6.7,-2.1,0.4,3.3,7.4,0,0.8,-3.9,0.6,-1.3,-17.1,0,6,0,0.4,-1.4,33.6,0,7.3,0,0.3,2,49.6,0,14.6,-0.9,0.8,4.8,63,0,15.4,-2.7,-1,5.5,31.9,0,11.2,-3,-0.8,3.1,18.9,0,7.2,-2.6,-0.5,2.1,8.4
79,170,350,258,91,78,52,24,68,40,88,52,0,0,32,36,76,44,0,0,24,12,48,20,60,40,60,40,64,40,0,4.9,0,0.7,-0.8,12.7,0,6.5,0,1.1,-1.1,22.1,0,2.9,0,0.7,-0.6,12.7,-5.6,0,0,-0.7,0.6,-17.9,-0.4,2,-0.9,-0.1,-0.2,1.2,0,4.5,0,0.8,-0.8,17.1,-4.5,0,0,-0.7,0.4,-14.4,0,1.2,-4.8,-0.5,0.4,-13,0,3.8,-5.1,0.2,0.7,1,0,11.5,-2.5,0.5,-1.5,31.5,0,13.1,-1.9,0.6,-1.8,37.1,0,9.9,0,0.7,-1.7,31.6
103,145,371,132,102,73,48,28,68,48,60,56,16,8,44,32,64,52,32,20,48,28,52,40,48,40,56,44,60,48,0,10.7,-1.2,0.5,1.6,22.5,-1.2,16.9,0,0.5,1.6,56,-1.6,13.2,0,0.2,-1.3,36.8,0,0.5,-12.8,-0.6,-1.6,-43.1,0,4.5,-6.5,-0.2,1.1,-8.3,-1.2,14.3,0,0.7,0.8,44.1,0,3.2,-12.3,-0.3,-0.5,-31.8,0,8.5,-17.8,0.1,4.1,-25.8,0,17.4,-13.1,0.4,3.4,8.6,-0.4,18.2,-3.5,0.3,1.7,35.7,-1.1,15.8,0,0.3,1.5,42.9,-1.2,13.4,0,0.3,1.4,38.8
97,149,363,251,82,72,64,32,88,24,0,0,0,0,60,32,16,52,36,24,60,44,56,40,48,32,52,32,68,24,0,14.7,0,0.4,-2.7,47,0,6.2,0,0.5,-1.7,27.2,-10.1,0,0,-0.4,1,-26.2,-10.5,0,0,-0.4,1.9,-37.8,0,13.7,0,0.2,-1.8,41.1,0,0.5,-4.2,0.4,-0.2,-2.6,0,2.3,-11,-0.9,2.6,-26.7,0,14.1,-8.7,0.5,-2.3,23.2,0,26.9,-13.2,1,-5.1,43.7,0,14.2,-10.2,0.4,-3.7,5.5,0,11.6,0,0.3,-2.9,30.1,0,8.9,0,0.3,-2.2,30.2
131,161,377,216,100,87,36,20,48,32,92,44,76,84,36,24,44,44,216,116,216,80,132,88,84,24,32,16,32,32,0,5.3,-3.3,1.3,2.7,-3,-0.8,3.8,-3.1,2.2,2.9,0.9,-3.2,5.4,0,0.9,0.5,19.7,-3.7,3.9,0,-1.2,-2.8,8.9,0,3.8,-4.4,-0.1,1.3,-12.5,-1.3,3.3,-2.4,1.1,1.7,0,0,24.9,0,-1.4,-3.9,268.9,0,12.4,0,0.4,-5.9,133.9,0,24.8,-0.4,0.8,-5.2,165.4,0,6.5,-3.3,1.2,1.9,18.1,0,3.8,-2.5,0.9,3.8,-3.5,-0.6,3.3,-1.2,0.8,3,0.8
91,0,359,152,0,68,84,40,52,32,40,28,28,56,72,44,48,32,28,72,40,24,56,40,48,32,48,24,56,24,-0.8,8.9,0,-0.2,1.9,36.5,0,9.3,-2.4,0.2,1.4,18.4,0,2.2,-4.1,0.3,-0.5,-8.7,-8.9,1,0,-0.5,-1.5,-19.9,-1.4,6.2,0,0.3,1.1,20.7,0,5.5,-3.4,0.2,0.5,5.8,0,1.9,-8.2,0,-1.7,-8.3,0,2.5,-0.4,0,1.8,9.6,0,9.3,-5.4,0,5.6,18.5,0,20.3,-4.7,-1.2,5.9,40.3,0,13.3,-1.3,-0.7,2.8,30.1,0,8.8,-0.6,-0.4,1.6,24
90,155,382,216,88,73,56,44,60,36,28,16,24,60,60,44,60,48,36,24,56,40,56,44,48,36,48,32,48,28,-1.1,11.8,-0.6,0.8,2,31.1,0,7.4,-0.9,0.6,2.2,21.2,0,1.6,-4.3,0.2,0.6,-9.8,-9.6,0.5,0,-0.7,-2.1,-26.2,-1.3,8.1,0,0.5,0.9,22.8,0,1.6,-1.5,0.4,1.2,2.7,0,2.6,-10.1,-0.7,2.9,-15.6,0,8.8,-13.3,0.5,8.7,6,0,20.4,-18.8,-0.6,9.5,23.3,0,16.7,-13.5,0.7,5.3,13,0,14.6,-7.3,0.6,3.8,20.4,0,10.7,-0.9,0.4,2.6,23.7
78,140,393,143,78,65,56,36,72,24,20,8,0,0,60,24,20,8,24,16,32,20,40,24,40,24,36,24,44,24,-0.6,9,0,1.3,2.6,24.8,0,3.6,0,1.3,1.6,12.9,0,0.6,-5.6,0.4,-0.9,-11.7,-6.3,0,0,-1,-2.3,-21.4,0,7.3,0,-0.1,1.8,21.9,0,0.4,-0.9,0.6,0.5,-1.2,0,0.9,-6.4,-1,-1.6,-18.2,0,2.7,-10.3,0.1,0.9,-24.5,0,6.3,-16.3,0.4,1.9,-26.5,0,8.1,-13.4,0.6,1.7,-21.3,0,5.8,-5.2,0.6,1.5,-4.1,0,5,-0.6,0.5,1.8,9.7
84,175,444,182,42,44,80,28,48,32,32,16,40,56,76,44,44,28,0,0,24,12,40,24,48,28,48,28,52,28,0,4.9,0,0.7,1,19.6,0,4,-3.5,1.2,1.1,0.5,0,1,-5.2,0.4,-0.4,-15,-4.2,1.2,0,-0.9,-1,-7.6,-0.4,4.3,0,-0.3,0.5,16,0,1.8,-4.2,1.1,0.5,-7,-3.4,0,0,0.4,-0.3,-12.9,0,0.7,-2.9,0.1,1.6,-6.7,0,4.7,-5.4,-0.7,3.4,-1.4,0,15.1,-4.8,0.6,3.2,26.6,0,15.1,-2.5,0.5,2.2,31.2,0,7.6,0,0.5,1.2,19.7
94,124,434,127,66,66,48,32,48,28,44,44,48,60,40,24,48,28,24,8,40,24,44,28,44,28,44,28,40,40,0,4.3,-2.2,0.4,-0.6,4.6,0,7.1,-2.6,0.3,-1.3,11.3,-0.6,4.3,-1.6,0.2,-0.7,6,-5.7,2,0,0,0.9,-8.8,0,1.2,-2,0,0.3,0,0,4.9,-2,0,-0.9,7.7,0,0.4,-5.2,-0.7,0.9,-14.1,0,2.9,-7.3,0.3,0.6,-11.7,0,7.3,-17.3,0.4,1.4,-22,0,9.7,-12.9,0.6,-0.7,-12.2,0,15.9,-9.1,0.3,-3.7,9.5,-0.5,11.8,-2.8,0.4,-3.2,16
96,141,340,225,87,83,44,28,44,40,68,40,24,52,32,20,56,40,36,24,36,24,44,32,52,36,40,40,40,40,0,4.7,-3,0.4,2.3,5.5,-0.4,13.2,-1,0.9,2.5,27.4,-0.6,8.4,0,0.5,0.4,27.8,-8.8,1.6,0,-0.9,-2.4,-17.4,0,0.8,-3,0.4,1.1,-7.2,-0.4,10.2,0,0.9,1.4,28.1,0,2.9,-8,-0.6,-1.4,-18.8,0,4.9,-8.8,-0.3,1.4,-15.8,0,9.8,-23.6,0.4,5.1,-35.1,0,18.8,-18.3,0.7,7.7,23.2,-0.8,21.4,-6.2,0.6,5.5,33.6,-0.8,14.3,-2.5,0.5,3.4,24.8
80,169,363,135,83,50,72,44,72,24,0,0,0,0,80,32,40,48,16,8,32,16,44,28,44,40,68,44,76,44,-0.5,9.5,0,0.6,1.7,33.7,0,4.5,0,0.9,1.2,16.2,-5,0,0,0.2,-0.5,-12,-7.4,0,0,-0.7,-1.4,-28.1,0,7.7,0,0.3,1.1,30.8,-0.5,0.9,0,0.5,0.3,0.9,0,0.4,-6.9,-0.6,-0.2,-24.5,0,1.1,-5.5,0.2,3.1,-12.6,0,10.9,-4.9,0.4,4.9,14.1,-0.4,16.1,-1.2,0.5,3,33,-0.5,10.7,0,0.4,1.7,35.7,-0.4,6.3,0,0.4,1,23.5
97,0,294,184,0,100,72,48,80,48,44,36,0,0,56,32,60,24,32,20,32,12,56,40,44,28,44,28,48,28,0,8.2,0,0.2,-1.3,29.5,0,10.8,0,-0.7,-1.8,43.2,-1.1,2.5,0,-1,-1.2,4,-9.5,0,0,0.2,1.6,-38,0,3.3,-1,0.6,0.6,7.2,0,6.6,0,-0.9,-1.4,19.8,0,1.7,-8.2,1,2,-18.6,0,0.9,-8,0.3,5.3,-19.4,0,7.2,-6.6,0.7,4.6,6.9,0,14.9,-5.9,-0.4,2.8,20.9,0,15,-3,-0.5,0.6,27,0,15.3,0,-0.5,0.2,36.7
90,0,341,201,0,68,64,36,52,32,36,24,0,0,52,28,48,32,20,12,24,12,32,16,60,44,56,36,88,32,0,5.1,0,-0.1,2.3,16.3,0,6,-0.6,-0.2,2.4,15.3,0,1.3,-1.4,-0.2,0.2,0.9,-5.5,0,0,0.1,-2.4,-15.4,0,2.3,0,0.1,1.1,5.9,0,3.6,-0.8,-0.1,1.3,8,0,0.7,-11.6,-0.3,-1.1,-36.4,0,0.9,-8.3,-0.2,2.8,-25.5,0,2.4,-5.9,-0.4,8.1,-10.3,0,13.2,-3.8,-0.1,6.5,34.3,0,13.4,-1.3,-0.2,3.9,35.2,0,9.4,0,-0.3,2.4,41.3
90,201,404,157,111,67,44,24,72,28,16,60,0,0,44,24,72,52,16,8,28,16,36,24,44,28,44,28,48,28,0,12.4,-1.1,1.3,1.6,25,0,7.1,0,1.3,0.6,25.5,0,0.4,-5.2,0.5,-1.1,-4.9,-9.8,0,0,-1.2,-1.1,-35.2,0,9,-1.7,0.8,1.3,17.5,0,2,0,0.8,-0.7,7.2,0,0.4,-10.8,-1.4,-0.3,-36.4,0,2.5,-14.1,-0.6,2.6,-35.9,0,8.1,-20.2,0.2,3.6,-33.9,0,12.6,-16.1,1,1.2,-17.3,0,16.6,-10.9,0.9,0.5,8.2,0,13,-1.9,0.9,0.4,26.7
123,193,440,183,111,50,52,44,40,24,28,84,60,72,52,28,28,16,36,88,44,32,44,32,40,28,32,36,36,40,-0.4,6,-3.5,1.1,0.7,4.7,0,4.9,-0.7,0.2,2.4,5.3,0,0.5,-3.3,-1.1,1.9,0.5,-5.5,2,0,-0.8,-1.7,-8.3,0,3.8,-2,0.7,-1,3.8,0,2.2,-1.6,0.5,2.3,2.1,0,2.8,-4.6,-0.6,-0.7,30.4,0,9.4,-9,0.1,3.2,-17.2,0,23.5,-19.3,0.2,5.3,-37,0,24.9,-20.8,0.9,4,-50,-0.6,19.1,-12.7,0.8,1.9,-30.8,-0.8,10.5,-3.5,0.7,1.5,2.7
105,178,329,145,72,93,32,20,28,12,76,48,64,64,36,24,0,0,84,68,36,20,36,24,36,24,36,20,36,20,0,3.4,-3.5,0.7,1.3,-5.8,0,1.5,-2.5,1.2,0.9,-4.9,-2,1.8,0,0.6,-0.6,3.2,-2.5,3,0,-1,-1.1,5.6,0,2.7,-2.4,-0.2,0.9,-3.3,-0.7,0,0,0.9,0.2,-2.2,0,10.2,0,-1.1,-4.9,42.8,0,6.1,-1.9,-0.7,-3.1,10.6,0,10,-6.8,0.2,-0.7,-9.2,0,8.4,-6.5,0.5,0.7,-10.9,0,5,-3.9,0.6,1.1,-5,0,2.2,-2.7,0.6,1.2,-4.2
85,154,352,152,69,70,48,28,48,24,0,0,24,56,48,28,40,20,24,12,28,16,36,24,48,28,48,28,48,24,0,7.6,-1.3,0.9,1.9,15.9,0,5.7,-1,1.5,1.8,12.4,-2.4,0,0,0.7,-0.2,-5.2,-6.6,1.2,0,-1.1,-1.9,-14.4,0,4.9,-0.8,-0.1,1,10.5,0,2,0,1,0.8,4,0,1,-6.8,-1.2,-0.4,-13.7,0,2,-8,-0.7,3,-19.6,0,3.7,-8.9,-0.2,4.8,-14.7,0,8.3,-5.6,0.5,3.2,6.5,0,12.2,-3.5,0.7,3,21.5,0,10.7,-1.6,0.7,2.3,22.4
77,160,359,141,100,81,40,20,40,44,40,52,24,68,24,12,44,48,24,12,24,12,32,20,40,36,40,44,40,44,0,3.9,-0.4,0.7,0.5,7.4,-0.9,9.8,-1,1.7,1.2,17.6,-0.7,6.5,-0.6,1,0.7,11.5,0,0.5,-6.8,-1.2,-0.8,-12.3,0,0.7,-1.8,-0.3,-0.1,-2,-0.6,8.1,-0.6,1.3,0.9,16.7,0,0.5,-8,-0.7,1.1,-15.4,0,1.6,-5.5,-0.4,1.9,-5.8,0,9,-5.2,-0.3,2.6,8.2,-0.5,16.9,-5.4,0.8,1.6,28,-0.8,13.3,-2.6,0.9,0.8,21.2,-0.7,8.5,-1.2,0.8,0.6,14.3
83,126,232,128,60,163,20,12,40,20,64,24,40,44,0,0,84,24,72,48,60,28,32,16,36,32,24,32,24,32,0,1.3,-7.7,0.6,1.8,-17.1,0,5.3,-1.4,-0.4,1.5,8.7,0,10.2,0,-0.9,-0.3,32.6,-2.9,3.5,0,-0.2,-1.7,2.4,-8.7,0,0,1,1,-26.1,0,7.2,0,-0.7,0.7,30.2,0,11,-2.4,-1.7,-3.2,36.8,0,6.2,-4.5,-1,-2.1,10.5,0,16,-9.1,0.4,2.7,0.2,-0.4,21.4,-13.1,0.3,4.8,-14.1,-1.3,8.3,-9.3,0.4,3.7,-11.8,-0.7,4.5,-5.5,0.5,2.5,-11.8
92,152,355,164,81,74,44,24,68,28,36,28,0,0,36,20,64,28,28,16,44,32,48,36,44,28,40,24,52,24,0,5.4,0,0.9,1.5,11.8,0,4.9,0,1.7,2,16.6,-0.9,2.2,0,0.9,0.6,3,-5,0,0,-1.2,-1.7,-13,0,3.2,-1,0.4,0.6,4.3,0,2.9,0,1.2,1.3,9.2,0,0.9,-5.5,-0.1,1.7,-14.2,0,4.6,-12.5,-0.4,6.5,-14.9,0,10.1,-13.7,-0.6,6.7,-3.2,0,12,-7.6,0.8,4.4,9.7,0,8.9,-2.3,0.8,2.9,13.7,0,6.2,-0.4,0.8,1.9,15.7
85,198,346,138,93,79,36,40,68,44,64,44,20,60,32,20,80,40,36,24,48,32,56,40,44,28,40,36,40,40,-0.4,4.3,-1.7,0.6,-0.2,4.6,-0.9,6.9,0,0.8,1.5,22.4,-0.4,2.7,0,0.6,1.6,8.2,0,0.4,-5.3,-0.8,-1.1,-9.4,0,1.1,-2.1,-0.1,-0.7,-3.7,-0.5,4.6,0,0.7,1.8,17.9,0,2.4,-5.3,-0.5,1.8,-9.4,0,6.7,-10.8,0.1,4.9,-5.6,0,16.5,-11,0.8,6,28.6,0,22.7,-7.1,1.3,2.3,34.3,-0.7,14.7,-3.3,1.1,0.6,22.3,-0.6,8.5,-0.8,0.9,0.6,15.8
96,178,350,169,114,89,36,40,40,24,24,68,32,48,36,36,48,36,28,72,32,20,32,24,40,24,48,32,40,24,-0.7,9.6,-5.6,1.1,0.3,3.1,0,4.5,-4,1,1.4,2.6,0,1,-5.7,0.3,1.8,-4,-7.6,4.6,0,-1.1,-1,-7.9,-0.8,5.8,-3.3,0.6,-0.8,2.6,0,1.7,-1.6,0.8,1.3,2.1,0,1.3,-9.9,-0.9,-1.1,-13.7,0,2.2,-12,-0.6,-0.2,-32.5,0,3.7,-17.6,0.4,2,-46.9,0,3.7,-13.6,0.7,2,-33.4,0,10.5,-10.2,0.7,1.3,-1.3,0,11.3,-5.3,0.9,0.8,8.9
69,155,240,133,64,124,28,16,28,16,20,44,24,40,20,24,32,16,0,0,16,8,24,16,32,20,32,20,36,20,0,3.7,-3.8,1,0,0.6,0,3.7,-3,1.8,0.8,1.5,0,1.3,-1.7,1.3,0.9,1.3,-3.5,3.2,0,-1.4,-0.1,-1.8,-0.4,2.1,-2.9,0.5,-0.3,-4,0,2.8,-1.5,0.9,0.3,4.8,-4.9,0,0,-0.9,0.5,-7.8,0,0.7,-11.4,0.2,2.1,-22.3,0,5.6,-21.4,0.6,2.7,-31.8,0,8.3,-11.6,1.1,0.4,0.3,0,4.8,-4.3,1.4,0.1,3.3,0,3.3,0,1.1,-0.1,5.9
88,197,404,188,99,59,32,20,44,28,68,40,32,52,28,16,40,20,44,32,36,24,44,28,48,36,48,32,48,28,0,3,-6.3,1,1.7,-12.8,0,9.3,-2.7,1,1.5,16.1,-0.9,11.1,0,0.6,-0.3,36.7,-5,3.9,0,-1.1,-1.1,-4.8,0,2,-8.8,-0.1,1.1,-25.3,0,10.4,-0.8,0.6,0.4,20.2,0,1.9,-3.9,-1.2,1.7,-4.4,0,6,-18.8,0.6,5.5,-34.3,0,9.1,-17.7,0.8,4.4,-15.4,0,13.8,-11.9,0.8,0.9,11.7,0,13.4,-7.4,0.7,0.1,14.4,0,10,-3.3,0.6,-1,16.8
84,152,396,136,100,66,68,24,48,28,40,20,0,0,60,36,44,28,0,0,0,0,44,28,44,32,48,32,48,28,0,5.8,0,0.6,-0.7,19.7,0,7.8,-4,0.8,0.4,9.9,0,2,-6,0.5,1,-11.6,-6.8,0,0,-0.7,0.3,-16.3,0,4,0,0.1,-0.8,12,0,4.9,-5,0.6,0.6,-1.3,-6.6,0,0,-0.6,0.5,-18.4,-6.7,0,0,-0.5,0.8,-17.4,0,10.2,-11.3,0.1,-1.4,-2.4,0,20.4,-11.2,0.3,-3.9,15.7,0,14.3,-6.7,0.4,-2.3,18.3,0,9.8,-3.6,0.3,-1.2,15.6
107,182,359,241,127,76,56,44,72,20,24,84,0,0,52,28,20,72,36,24,56,40,56,44,56,40,52,36,68,32,-0.6,17.1,0,0.6,-1.9,47.2,0,5.2,0,0.6,-1.7,18.7,0,0.7,-12,0.4,0.7,-19.6,-11.6,0,0,-1,1.6,-46.4,0,13.6,-2.6,0.6,-1.1,29.1,0,0.5,-2,0.8,-0.9,5,0,2.2,-14.6,-1.2,2.5,-39.9,0,8.1,-18,-0.2,3.3,-20.6,0,17,-22.4,-0.5,1.9,-19.6,0,25.5,-18.6,0.7,-2.3,15.6,0,22,-7.6,0.6,-2.7,34.4,0,13.9,0,1.1,-2.2,47.2
91,164,357,172,78,76,44,24,48,36,16,8,40,40,92,20,0,0,24,76,32,20,48,32,44,28,40,24,40,20,0,3.7,-0.6,0.5,1,7.5,0,2.4,-5.4,1.6,2.7,-5.1,0,0.5,-4.9,1.2,1.7,-18.2,-2.7,2.9,0,-1,-1.9,1.5,0,3.1,0,-0.4,-0.2,14.2,-4.7,0,0,1.3,2,-18.8,0,0.8,-4.1,-0.7,-0.3,-4.6,0,2.5,-3.3,-0.3,2.3,-1.2,0,7.9,-9.9,0.7,7.5,1.1,0,10,-7.3,0.8,4.8,7.4,0,6.4,-3.3,0.7,2.7,6.2,0,3.9,-1.7,0.6,1.5,4.8
74,160,381,142,87,67,44,24,48,20,44,44,0,0,40,24,56,16,28,16,36,20,48,28,52,32,44,24,44,20,0,6.6,-1.1,0.3,1.2,13,0,6.8,0,1,1.1,16.3,-0.4,1.2,0,0.7,-0.3,2.3,-6.8,0,0,-0.6,-1.1,-14.9,0,3.1,-1.1,-0.3,0.7,4.5,0,3.6,0,0.7,0.5,10,0,1.7,-5.8,-0.2,-0.5,-10.4,0,3.2,-4.3,0.2,1.4,-5.4,0,6.6,-4.4,-0.1,2,7.9,0,8.6,-1.9,0.6,1.2,18.5,0,10.6,-1.6,0.6,1.4,20.1,0,8.4,-1.1,0.5,0.9,16.5
89,158,355,144,106,73,52,28,68,40,36,20,16,60,56,52,44,16,0,0,48,28,52,36,48,32,48,32,48,28,0,6.3,-0.4,0.5,0.7,15.9,0,3.7,-0.6,0.6,1.7,12.1,0,1.3,-3.2,0.3,1.3,-5.3,-4.9,0.7,0,-0.6,-1,-13.2,-0.7,5.7,0,-0.1,-0.7,15,0,1,-1.8,0.4,1.3,-1.4,-2.2,0,0,-0.6,0.8,-5.2,0,3,-3.2,0.3,-2.1,3.9,0,13.4,-9.4,0.5,1.6,14.2,0,15.3,-10.4,0.6,1.6,9.7,0,12.8,-6.6,0.5,2.2,13.6,0,8,-2.5,0.4,2,13.2
80,157,375,180,106,62,60,32,56,24,20,24,0,0,88,44,48,28,28,16,44,24,52,32,56,36,52,32,56,28,-0.4,7.3,0,1,1.3,21.7,0,8.4,0,1.7,-2.2,23.5,-0.7,1.3,-1.5,0.7,-1.8,-2.5,-7.9,0,0,-1.5,-0.1,-26.8,0,3.6,0,0.3,1.5,15.8,0,4.3,0,1.3,0.2,10.3,0,1.3,-6.6,-0.6,1.6,-14,0,6.4,-5,0.2,4.4,6,0,13.4,-3.4,0.4,3.9,28.7,0,13.1,-3.4,0.9,-1.7,31.2,0,11.4,-1.8,0.8,-1.2,26.8,0,9.2,0,0.9,-0.9,25.7
83,209,344,297,105,75,36,20,44,44,52,48,20,8,28,16,64,48,32,20,44,32,40,28,36,32,32,36,40,36,0,5.5,-1.8,0.4,-1.4,6.7,-0.8,6.9,0,0.8,0.3,14.2,-0.5,4.1,0,0.6,1,9.7,0,0.5,-5.9,-0.5,1.3,-10.1,0,2.5,-2.5,-0.1,-1.1,-1.5,-0.6,5,0,0.6,0.6,15.3,0,1.3,-5.7,-0.7,1,-11.6,0,3.7,-9.4,-0.2,0.9,-14.4,0,7.4,-10.2,-0.3,0.2,-7.6,-0.4,9.5,-7.9,0.1,-1.5,-0.4,-0.6,9.9,-4.8,0.2,-1.3,4.7,-0.5,8.8,-1.8,0.4,-1.2,14
92,158,388,163,104,65,68,44,44,44,24,12,28,16,64,44,44,20,40,24,40,28,40,44,36,44,44,44,52,48,-1,7.1,0,1,2.5,22.9,-0.5,4.3,-0.6,1.2,1.3,7.9,0,0.5,-2.8,0.5,-1.1,-10,0,0.8,-5.5,-1.1,-2,-14.3,-1.1,4.9,0,0.4,1.8,14.1,0,0.7,0,0.8,0.2,1.5,0,2.1,-6,-0.2,-0.8,-10.2,0,9.1,-7.9,-0.4,3.7,-0.7,-1,17.6,-7.8,-0.5,5.1,18.6,-1.3,14.2,-4,0.6,4.1,15.2,-1.1,9.9,-1.3,0.6,3.1,18.1,-0.9,6.2,0,0.6,2.2,14.9
100,139,388,182,91,63,48,40,84,48,72,60,20,12,36,16,76,40,28,16,44,32,44,32,44,28,40,44,48,48,-0.5,5,0,0.7,0.9,11.6,-1.2,8.5,0,0.4,0.9,34.3,-1,4.7,0,-0.7,0.3,15.3,0,0.7,-6.7,-0.7,-0.5,-26.1,0,2,-2.4,0.7,0.4,-2.1,-0.6,5.5,0,-0.4,0.3,20.3,0,0.9,-6.5,-0.5,0.7,-22.2,0,2.8,-8.4,0.4,2.8,-15.7,0,8.2,-12.6,0.8,5,-12.2,0,16.3,-13.3,1.5,5.2,6.6,-0.9,22.4,-8,1.1,2.6,21.5,-1.3,18.5,-0.9,0.9,1.7,41
105,152,354,177,118,84,48,24,68,24,52,52,0,0,40,24,68,36,32,20,40,24,48,32,44,28,44,40,60,44,0,7.5,-1.6,0.3,1.9,14.5,0,7.9,0,0.8,1.4,26.8,-1.8,3.3,0,0.5,-1.3,5.7,-7.3,0,0,-0.6,-1.4,-18.9,0,3.2,-2.7,-0.3,1.3,-0.6,-0.4,5.7,0,1,0.4,19,0,2.3,-8,-0.3,-0.1,-20.4,0,6.8,-15,-0.3,5.1,-22.4,0,11.4,-16.3,-0.5,7.1,-5.3,0,21.4,-10.2,0.7,5.1,26.6,-1,22.2,-2.9,1.1,3.5,40.9,-1.1,14.7,0,-0.1,1.9,42.8
99,132,383,184,80,72,44,40,48,28,48,36,28,52,60,56,52,36,36,20,60,28,60,44,40,40,40,36,44,40,-0.6,7.4,-1,0.4,1.2,14.2,0,7.7,-3.8,1,5.8,12.4,0,1.9,-4,0.5,4.5,-4.3,-7.9,2.3,0,-0.6,-3.3,-14.1,-1.2,5.3,0,-0.2,-1.8,14.3,0,4.8,-4,0.8,5.2,5.2,0,3.2,-4.5,0.3,1.4,1.9,0,5.1,-1.3,0.4,3,14,0,9.5,-7.9,0.6,7,17.5,-0.7,25.9,-7.4,0.6,6.3,39.5,-0.7,15.2,-3,0.6,5.2,26.3,-0.7,11.2,-0.8,0.5,3.8,23.1
84,150,379,292,85,76,40,40,60,40,20,8,20,48,36,40,96,36,20,12,24,12,40,20,44,28,44,28,44,24,-0.4,7.2,-1.3,0.4,1.5,11.7,0,4.1,-1.3,1.1,0.9,10,0,1,-3.2,0.7,-0.6,-6.8,-5.6,0.7,0,-1,-1.8,-11.6,-1,4.2,-1.4,-0.3,-0.1,3.7,0,1.5,0,1.3,1.5,7.2,0,0.9,-7,0.2,-1.3,-18.7,0,2.6,-6.4,0.2,0.7,-10.9,0,5.6,-6.8,0.3,0.9,0.4,0,8.4,-3.6,0.6,-0.1,9.8,0,11.6,-2.5,0.5,1,20,0,9.8,-1.2,0.5,1.2,19.1
74,199,384,142,100,75,0,0,44,28,48,28,36,48,28,52,44,28,24,40,24,64,36,24,48,28,48,28,48,28,-2,0,0,0.7,0.7,-4.4,0,6.4,-2.4,1.4,0.7,9.7,0,7.9,-2,0.6,-0.6,15.7,-2.6,1.7,0,-1,-0.7,-2.2,-4.7,0.8,0,0.3,0.6,-9.2,0,7.1,-2.2,0.9,0.4,12.1,-1.9,2.1,0,-1.2,-0.6,-0.5,0,0.8,-5.5,-0.7,1.1,-5,0,6.1,-19.3,0.5,4.3,-23.8,0,9.5,-3.5,0.8,6.4,20.4,0,6.6,-1.1,0.8,2.3,15.4,0,4.2,-0.6,0.6,0.9,9.6
76,130,333,160,71,92,44,24,48,28,48,28,24,56,28,16,52,32,28,76,32,20,48,28,48,32,48,28,44,24,0,6.1,-1.1,0.6,1,11.5,0,11.1,-2,1.7,1.8,23.4,0,6.3,-0.9,1.1,0.9,13.9,-8.9,1.5,0,-1.2,-1.2,-19.5,0,1.6,-1.7,-0.2,0.3,-1.2,0,9.2,-1.3,1.3,1.2,22.6,0,0.7,-9.6,-0.7,1.2,-17.1,0,2.9,-7.1,0.2,4.9,-13.8,0,7.2,-5.4,0.8,5.8,6.4,0,11.4,-4.8,1.1,4.6,17.7,0,12,-3,0.9,2.2,23.4,0,10.1,-1.8,0.8,1.6,19
87,160,357,178,89,80,44,24,48,28,52,32,28,56,0,0,48,28,28,16,36,24,56,36,60,40,52,32,48,28,0,4.7,-1,0.4,1.9,8.7,0,10.4,-2.3,0.7,3.4,21.3,0,6,-1.5,0.4,1.6,12.9,-7.5,1.5,0,-0.5,-2.5,-15.9,-1.6,0,0,-0.2,0.5,-2.5,0,8.3,-1.8,0.5,2.4,16.7,0,1.1,-6.2,-0.3,-0.5,-10.9,0,2,-4.8,-0.1,2.5,-6,0,7,-6.5,0.3,6.7,7.9,0,16,-6.1,0.5,6.9,38.3,0,12.1,-3.2,0.5,4.1,26.3,0,8.4,-1.4,0.4,2.6,17.6
87,131,349,150,77,81,64,24,32,40,24,40,20,12,60,48,28,40,28,16,28,16,28,16,36,36,36,40,60,40,0,4.5,0,0.6,0.1,14.4,-1,9.3,-1.7,1.1,0.3,13.4,-0.9,4.7,-3.8,0.5,0.2,1.2,0,0.6,-6.9,-0.8,-0.2,-21.4,0,3.2,0,0.3,0,9.6,-0.9,7,-2.7,0.8,0.2,6.8,0,1.4,-12.6,0,2.6,-33.3,0,1.8,-11.2,0,3.4,-26.6,0,2.4,-11.3,0,5.7,-21.5,-0.6,7.6,-5.8,0.7,2.4,2.8,-0.8,8.7,-1,0.7,0.6,12.6,-0.6,7.4,0,0.5,-0.3,21.6
88,146,380,158,78,71,40,20,52,32,60,48,32,64,32,36,64,44,24,60,20,12,32,20,44,28,48,32,48,28,0,3.8,-1.3,1,1.5,4.8,0,4,-1.9,1.3,0.6,6.6,0,1.2,0,0.4,-1,3.6,-4.5,1.4,0,-0.9,-1.2,-10.4,-0.4,1.9,-0.5,0.5,1.2,1.7,0,2.7,-1,0.8,0.3,7.2,-6.3,1.3,0,-0.6,-0.8,-14.8,0,0.9,-7.1,-0.4,0.8,-17.5,0,2.7,-12.1,0.2,3,-29.5,0,6.4,-10.3,0.5,3.1,-12.7,0,7.1,-4.9,0.5,1.5,3.3,0,6.1,-1.9,0.5,1.2,9.7
80,154,354,171,85,78,40,24,72,24,32,44,20,44,32,16,68,20,40,24,44,28,44,28,40,28,40,24,40,20,0,6.2,-1.5,0.8,1.2,10.6,0,5.1,0,0.7,1.4,18.3,-1.8,2.1,0,0.2,0.2,0.5,-5.5,0.9,0,-0.9,-1,-10.1,0,3.4,-2,0.6,0.4,2.2,0,2.4,0,0.4,0.7,8.1,0,5.1,-7.1,0.1,0.6,-6.8,0,10,-13.1,0.2,2.4,-1.5,0,15.4,-12.2,-0.3,1.5,7,0,12.8,-7.5,0.5,1.1,6.1,0,10.7,-4.3,0.7,1.2,14.6,0,7.8,-1.2,0.8,1.1,14
85,168,386,148,86,58,52,28,52,32,32,16,36,56,88,20,48,32,0,0,32,16,52,28,48,40,48,40,48,40,0,5.7,-1,0.5,0.7,13,0,7.1,-2,1.4,1,14.4,0,2.1,-0.9,0.9,0.3,1.5,-6.3,1.5,0,-0.9,-1,-13.6,0,2.4,0,-0.3,0.3,10.5,0,4.6,-1.7,1.1,0.7,7.6,-6.5,0,0,-0.9,-0.5,-14.3,0,1.9,-2.9,-0.3,0.7,-4.5,0,10.9,-4.5,0.2,1.5,20.2,-0.4,15.3,-4,0.5,1.3,29.2,-0.5,10.3,-2.2,0.5,0.8,20.4,-0.4,6.9,-1.3,0.5,0.7,13.9
90,156,364,170,86,72,48,28,40,20,48,36,24,52,0,0,48,24,28,64,40,24,52,28,64,48,48,28,40,36,0,4,-1.6,0.7,2.3,7.4,0,8.5,-1.5,1.6,2.7,14.9,-0.5,4.5,0,1,0.7,10.3,-6.4,1.5,0,-1.1,-2.5,-12.2,-1.2,0,0,0.1,1,-3.6,0,6.8,0,1.3,1.6,16.3,0,1.8,-4.9,-1.2,-2,1.6,0,3.6,-3.5,-0.7,-0.4,10.7,0,6.2,-3.9,0.2,3.1,8.3,0,14.6,-5.9,0.6,5.2,37.3,0,13.8,-3.2,0.7,4,28.7,-0.6,9.8,-1.3,0.6,2.7,17.4
74,184,387,173,105,72,48,24,44,40,44,44,0,0,28,8,44,36,20,12,24,16,40,24,40,24,44,24,72,20,0,2.7,0,0.4,2,6.4,-0.5,8.4,-0.5,1,2.2,17.6,-0.9,6.7,0,0.8,0.4,13.8,-5.2,0,0,-0.7,-2,-12.4,0,0.4,-2.9,-0.3,0.9,-6.4,-0.5,7.6,0,0.9,1.1,16.3,0,0.7,-9.1,-0.8,-1.8,-24.7,0,2,-12.5,-0.5,1.4,-25.1,0,4.2,-10.3,-0.3,6.6,-8,0,11.5,-3.5,0.7,4.7,18.8,0,9.8,-0.8,0.6,3.9,20.9,0,8.2,0,0.7,2.8,29.5
95,123,378,161,81,57,40,40,52,24,76,56,36,56,36,36,68,40,28,16,40,24,52,32,44,44,44,44,44,44,-0.7,7.2,-2.2,0.6,1.9,8.9,0,9,-1.7,1.4,1.6,20.4,0,2.7,-0.5,0.8,-0.4,9.6,-8.2,1.8,0,-0.7,-1.7,-16.4,-0.5,3.3,-1.5,-0.2,1.1,3.3,0,5.5,-1.2,1,0.6,17.1,0,3.3,-8.5,-1,-0.4,-7.9,0,8.2,-13.8,-0.4,4,-16.7,0,13.4,-9.9,0.3,5.5,15,-0.9,24.3,-4.4,0.5,2.3,43.7,-1.2,16.3,-2,0.4,1.2,30.6,-0.9,10.2,-1.1,0.5,0.8,19.5
86,191,359,146,105,76,80,28,44,28,0,0,12,56,80,32,40,28,36,16,48,28,48,32,48,32,48,32,44,28,0,7.5,0,0.9,1.3,30,0,4,-1.8,1,1.8,6.7,-4.7,0,0,0.6,0.6,-14.1,-5.4,0.7,0,-0.7,-1.2,-13.6,0,5.5,0,0.4,-0.1,22,0,1.3,-3.1,0.7,1.2,-2.3,0,1.4,-5.3,-0.4,1.6,-9.1,0,9.3,-11.1,0.3,6,4.6,0,14,-14,0.3,5.5,11.2,0,8.5,-9,0.6,2.5,4.2,0,6.9,-5.4,0.5,1.8,9,0,4,-1.3,0.4,1.1,8.6
74,178,302,127,117,112,20,8,56,28,72,28,36,48,0,0,76,28,0,0,0,0,20,12,36,24,44,28,40,24,0,0.6,-3.7,1.4,0.5,-9,0,6.3,0,2,0.5,17.6,0,9.2,0,0.6,-1,33.1,-2.1,0.9,0,-2,-0.8,-2.6,-6.3,0,0,0.2,0.4,-22.6,0,7.7,0,1.8,0.7,29.2,-1.2,0,0,-2.3,-0.3,-2.4,-4.7,0,0,-1,0.6,-14.1,0,2.4,-9.1,0.5,1.6,-19.4,0,5.3,-12.7,0.9,2.2,-28.6,0,6.2,-6.6,1.7,1.6,-2.2,0,4.1,-2.9,1.5,0.8,1.9
95,181,368,156,104,70,52,28,44,24,0,0,0,0,52,24,24,8,20,8,40,24,44,28,48,32,44,28,44,28,0,5.5,0,1,0.5,14.3,0,3.3,0,0.9,1.1,7.2,-2.2,0,0,-0.8,0.5,-6.1,-4.4,0,0,-0.7,-0.8,-11.4,0,3.8,0,0.8,-0.2,9.8,0,0.5,-0.6,0.6,0.8,-0.2,0,0.6,-4.6,0,1.5,-10.4,0,4,-6.1,0,3,-4.2,0,10.2,-10.1,0,4.7,-1.8,0,10,-7.9,0.6,3.1,5.1,0,8.1,-5.3,0.7,2.4,6.2,0,5.2,-2.8,0.6,1.3,4.2
74,0,374,138,115,63,68,28,52,32,16,4,24,64,80,20,44,28,0,0,24,12,36,24,76,32,64,28,64,32,0,6.5,0,0.5,1.1,22.1,0,8.2,-1.7,0.6,2.3,15.9,0,1.9,-4.4,-0.3,1.3,-14.3,-7.4,0.5,0,0.5,-1.5,-21.6,0,3.4,0,-0.5,-0.3,13.6,0,5.1,-2.7,-0.3,1.6,6.4,-7.6,0,0,-0.2,1.6,-21.2,0,2,-6.8,-0.2,2.5,-9.8,0,6.4,-4.1,-0.2,4.1,8.8,0,8.6,0,0.8,3.3,32.6,0,11,0,0.6,2.2,35.2,0,10.9,0,0.3,1.6,34.8
73,160,359,248,37,65,68,28,48,28,36,24,0,0,68,36,40,24,0,0,0,0,44,28,48,32,52,32,56,28,0,4,0,0.3,-0.6,13.6,0,8,-1.9,-0.2,-0.9,16.2,0,4,-2.8,-0.4,-0.4,1.6,-5.6,0,0,0,0.4,-13.4,0,2.2,0,0,-0.2,7.4,0,5.4,-2.6,0,-0.2,6.2,-12.9,0,0,0.5,1.2,-38.7,-15,0,0,0.6,1.7,-45,0,3.8,-4.5,0.6,0.7,1.1,0,10.5,-2.8,0.3,0.6,20.8,0,9.5,-1.1,0.2,0.2,23.2,0,8.1,0,0.1,-0.8,22.6
104,103,359,153,65,58,48,36,56,40,12,40,20,8,28,28,60,20,32,20,40,28,44,32,48,32,36,40,48,52,-0.9,8.5,0,0.2,-1,19.5,-0.5,9.4,0,0.5,1.2,25.8,0,0.5,-2,0.4,1.6,8.9,0,0.6,-8.5,-0.3,-0.4,-21.5,-0.6,4.9,0,-0.2,-1.1,6.4,0,6.4,0,0.4,1.4,19.2,0,3,-8,-0.5,1.3,-17.6,0,8.5,-11.8,0.2,1.7,-16,0,15.1,-21.1,0.5,1.4,-25.8,0,12.6,-7.4,0.4,-1.5,9.5,-0.8,13.6,-3.1,0.7,-1.1,15.5,-1.8,11.5,0,0.7,-1.2,24.4
92,0,363,151,204,73,64,40,44,28,40,20,40,48,64,56,44,36,32,20,24,12,56,44,52,36,48,28,52,28,-0.6,6.4,0,0,0.6,19.8,0,4.5,-4.4,0,0.8,-1.5,0,1.1,-7.8,0,0.2,-19.6,-5.2,0.8,0,-0.4,-0.7,-9.8,-0.9,6,0,0.3,0.4,17.8,0,2.2,-5.7,0.2,0.4,-10,0,1.7,-11.5,1,1.9,-29.5,0,1.2,-12.9,0.9,-1.4,-37.3,0,11.5,-12,-0.2,3.1,13,0,22.9,-7.9,0.8,0.5,42.2,0,10.7,-1.9,0.7,-0.9,21.8,0,8.1,0,0.3,1,21
97,196,333,171,139,92,40,24,64,48,88,60,36,56,24,12,96,36,28,16,32,20,36,24,44,28,44,28,48,44,0,3.9,-2.5,0.8,0.2,1.3,-0.5,6.5,0,1.7,1.5,20.3,-0.5,5.1,0,1.1,1.6,21.8,-5.2,1,0,-1.2,-0.6,-11.7,0,1.3,-3.4,-0.4,-0.7,-8.7,0,5.5,0,1.3,1.4,26.4,0,0.9,-7.9,0,1.9,-22.5,0,2.3,-15.8,0,1.8,-46.9,0,4.2,-21,0,2.5,-51.3,0,6.7,-10.1,0.4,1.7,-9.5,0,11.2,-5,0.7,1.2,10.6,-0.4,11.1,-1.9,0.7,0.9,21.4
